Time(s),CH1V,CH2V
-5.000000e-04,2.052800e+00,2.313467e+00
-4.995000e-04,2.135067e+00,2.300400e+00
-4.990000e-04,2.227600e+00,2.310000e+00
-4.985000e-04,2.320533e+00,2.300933e+00
-4.980000e-04,2.415867e+00,2.304400e+00
-4.975000e-04,2.508267e+00,2.302667e+00
-4.970000e-04,2.589467e+00,2.306667e+00
-4.965000e-04,2.687467e+00,2.308933e+00
-4.960000e-04,2.781067e+00,2.311200e+00
-4.955000e-04,2.861067e+00,2.320800e+00
-4.950000e-04,2.966000e+00,2.305467e+00
-4.945000e-04,3.048267e+00,2.312267e+00
-4.940000e-04,3.137333e+00,2.322533e+00
-4.935000e-04,3.220133e+00,2.314533e+00
-4.930000e-04,3.309733e+00,2.316800e+00
-4.925000e-04,3.394800e+00,2.322533e+00
-4.920000e-04,3.484400e+00,2.336133e+00
-4.915000e-04,3.566133e+00,2.327067e+00
-4.910000e-04,3.651200e+00,2.332667e+00
-4.905000e-04,3.730000e+00,2.330933e+00
-4.900000e-04,3.804267e+00,2.340667e+00
-4.895000e-04,3.884800e+00,2.345733e+00
-4.890000e-04,3.958533e+00,2.348533e+00
-4.885000e-04,4.032933e+00,2.357067e+00
-4.880000e-04,4.094666e+00,2.376800e+00
-4.875000e-04,4.176400e+00,2.361600e+00
-4.870000e-04,4.235333e+00,2.363200e+00
-4.865000e-04,4.309067e+00,2.366667e+00
-4.860000e-04,4.364667e+00,2.374533e+00
-4.855000e-04,4.427067e+00,2.382533e+00
-4.850000e-04,4.481600e+00,2.383600e+00
-4.845000e-04,4.536533e+00,2.385867e+00
-4.840000e-04,4.578000e+00,2.394933e+00
-4.835000e-04,4.626133e+00,2.398400e+00
-4.830000e-04,4.672133e+00,2.407467e+00
-4.825000e-04,4.712934e+00,2.415867e+00
-4.820000e-04,4.768533e+00,2.431200e+00
-4.815000e-04,4.794667e+00,2.422133e+00
-4.810000e-04,4.821867e+00,2.428933e+00
-4.805000e-04,4.846800e+00,2.438533e+00
-4.800000e-04,4.872933e+00,2.433467e+00
-4.795000e-04,4.895067e+00,2.440800e+00
-4.790000e-04,4.916000e+00,2.458400e+00
-4.785000e-04,4.933067e+00,2.462267e+00
-4.780000e-04,4.952267e+00,2.472000e+00
-4.775000e-04,4.960267e+00,2.475867e+00
-4.770000e-04,4.958000e+00,2.476533e+00
-4.765000e-04,4.959067e+00,2.477600e+00
-4.760000e-04,4.963600e+00,2.476533e+00
-4.755000e-04,4.952933e+00,2.484400e+00
-4.750000e-04,4.947733e+00,2.501333e+00
-4.745000e-04,4.944400e+00,2.491733e+00
-4.740000e-04,4.918267e+00,2.510400e+00
-4.735000e-04,4.923333e+00,2.509867e+00
-4.730000e-04,4.885334e+00,2.512667e+00
-4.725000e-04,4.855333e+00,2.519467e+00
-4.720000e-04,4.818400e+00,2.537600e+00
-4.715000e-04,4.799733e+00,2.538800e+00
-4.710000e-04,4.758267e+00,2.545600e+00
-4.705000e-04,4.723200e+00,2.547200e+00
-4.700000e-04,4.680000e+00,2.564800e+00
-4.695000e-04,4.646533e+00,2.550133e+00
-4.690000e-04,4.591600e+00,2.559200e+00
-4.685000e-04,4.541067e+00,2.563067e+00
-4.680000e-04,4.489467e+00,2.564800e+00
-4.675000e-04,4.432800e+00,2.576667e+00
-4.670000e-04,4.370400e+00,2.570400e+00
-4.665000e-04,4.322134e+00,2.578933e+00
-4.660000e-04,4.246667e+00,2.587467e+00
-4.655000e-04,4.190000e+00,2.589200e+00
-4.650000e-04,4.115200e+00,2.602133e+00
-4.645000e-04,4.043067e+00,2.594800e+00
-4.640000e-04,3.967733e+00,2.585200e+00
-4.635000e-04,3.896800e+00,2.599867e+00
-4.630000e-04,3.825867e+00,2.608933e+00
-4.625000e-04,3.744800e+00,2.605600e+00
-4.620000e-04,3.665867e+00,2.607867e+00
-4.615000e-04,3.587600e+00,2.612400e+00
-4.610000e-04,3.504800e+00,2.614667e+00
-4.605000e-04,3.418133e+00,2.610667e+00
-4.600000e-04,3.323333e+00,2.610133e+00
-4.595000e-04,3.247867e+00,2.612933e+00
-4.590000e-04,3.163467e+00,2.612400e+00
-4.585000e-04,3.068133e+00,2.619733e+00
-4.580000e-04,2.987600e+00,2.610133e+00
-4.575000e-04,2.899067e+00,2.624267e+00
-4.570000e-04,2.802667e+00,2.629333e+00
-4.565000e-04,2.718133e+00,2.613467e+00
-4.560000e-04,2.613200e+00,2.616933e+00
-4.555000e-04,2.524133e+00,2.612400e+00
-4.550000e-04,2.432800e+00,2.623733e+00
-4.545000e-04,2.340400e+00,2.615200e+00
-4.540000e-04,2.250267e+00,2.621467e+00
-4.535000e-04,2.157733e+00,2.620267e+00
-4.530000e-04,2.059600e+00,2.607867e+00
-4.525000e-04,1.972267e+00,2.614000e+00
-4.520000e-04,1.887200e+00,2.612400e+00
-4.515000e-04,1.808400e+00,2.599333e+00
-4.510000e-04,1.711467e+00,2.604400e+00
-4.505000e-04,1.623467e+00,2.602667e+00
-4.500000e-04,1.542400e+00,2.594267e+00
-4.495000e-04,1.456800e+00,2.590800e+00
-4.490000e-04,1.376800e+00,2.589733e+00
-4.485000e-04,1.295067e+00,2.588533e+00
-4.480000e-04,1.208933e+00,2.580667e+00
-4.475000e-04,1.123733e+00,2.578400e+00
-4.470000e-04,1.062533e+00,2.567067e+00
-4.465000e-04,9.882667e-01,2.579467e+00
-4.460000e-04,9.230667e-01,2.578400e+00
-4.455000e-04,8.486667e-01,2.565333e+00
-4.450000e-04,7.710667e-01,2.563600e+00
-4.445000e-04,7.086667e-01,2.554000e+00
-4.440000e-04,6.462667e-01,2.544400e+00
-4.435000e-04,5.832000e-01,2.542133e+00
-4.430000e-04,5.293334e-01,2.543333e+00
-4.425000e-04,4.920000e-01,2.547200e+00
-4.420000e-04,4.261333e-01,2.537600e+00
-4.415000e-04,3.841333e-01,2.531333e+00
-4.410000e-04,3.297333e-01,2.516133e+00
-4.405000e-04,2.860000e-01,2.523467e+00
-4.400000e-04,2.446667e-01,2.512667e+00
-4.395000e-04,2.072000e-01,2.509867e+00
-4.390000e-04,1.777333e-01,2.498000e+00
-4.385000e-04,1.493333e-01,2.492933e+00
-4.380000e-04,1.266667e-01,2.496800e+00
-4.375000e-04,1.040000e-01,2.482667e+00
-4.370000e-04,7.106667e-02,2.475333e+00
-4.365000e-04,5.186667e-02,2.473600e+00
-4.360000e-04,4.733333e-02,2.460667e+00
-4.355000e-04,4.386667e-02,2.468533e+00
-4.350000e-04,3.813333e-02,2.444800e+00
-4.345000e-04,1.840000e-02,2.449333e+00
-4.340000e-04,2.000000e-02,2.447067e+00
-4.335000e-04,1.773333e-02,2.438533e+00
-4.330000e-04,3.360000e-02,2.435733e+00
-4.325000e-04,4.333333e-02,2.430667e+00
-4.320000e-04,6.773333e-02,2.426667e+00
-4.315000e-04,7.453334e-02,2.423200e+00
-4.310000e-04,9.266667e-02,2.405200e+00
-4.305000e-04,1.244000e-01,2.406800e+00
-4.300000e-04,1.448000e-01,2.401733e+00
-4.295000e-04,1.777333e-01,2.393200e+00
-4.290000e-04,2.276000e-01,2.397200e+00
-4.285000e-04,2.520000e-01,2.381867e+00
-4.280000e-04,2.945333e-01,2.379067e+00
-4.275000e-04,3.314667e-01,2.368933e+00
-4.270000e-04,3.773333e-01,2.370000e+00
-4.265000e-04,4.306667e-01,2.361600e+00
-4.260000e-04,4.646667e-01,2.360933e+00
-4.255000e-04,5.197333e-01,2.367733e+00
-4.250000e-04,5.906667e-01,2.354133e+00
-4.245000e-04,6.445333e-01,2.350800e+00
-4.240000e-04,7.074667e-01,2.340667e+00
-4.235000e-04,7.772000e-01,2.344000e+00
-4.230000e-04,8.345333e-01,2.340667e+00
-4.225000e-04,9.100000e-01,2.330933e+00
-4.220000e-04,9.842667e-01,2.342933e+00
-4.215000e-04,1.042667e+00,2.330933e+00
-4.210000e-04,1.126000e+00,2.329333e+00
-4.205000e-04,1.207200e+00,2.319067e+00
-4.200000e-04,1.281467e+00,2.313467e+00
-4.195000e-04,1.370000e+00,2.317333e+00
-4.190000e-04,1.449333e+00,2.308933e+00
-4.185000e-04,1.541867e+00,2.313467e+00
-4.180000e-04,1.605867e+00,2.308933e+00
-4.175000e-04,1.709733e+00,2.314000e+00
-4.170000e-04,1.789733e+00,2.310000e+00
-4.165000e-04,1.877067e+00,2.311200e+00
-4.160000e-04,1.975733e+00,2.311200e+00
-4.155000e-04,2.059067e+00,2.304400e+00
-4.150000e-04,2.134533e+00,2.313467e+00
-4.145000e-04,2.225333e+00,2.309467e+00
-4.140000e-04,2.334133e+00,2.315733e+00
-4.135000e-04,2.418667e+00,2.314533e+00
-4.130000e-04,2.516800e+00,2.305467e+00
-4.125000e-04,2.613200e+00,2.306667e+00
-4.120000e-04,2.701733e+00,2.306667e+00
-4.115000e-04,2.779467e+00,2.321333e+00
-4.110000e-04,2.869600e+00,2.310000e+00
-4.105000e-04,2.956933e+00,2.324133e+00
-4.100000e-04,3.064667e+00,2.311200e+00
-4.095000e-04,3.142933e+00,2.310000e+00
-4.090000e-04,3.231467e+00,2.328133e+00
-4.085000e-04,3.318800e+00,2.318000e+00
-4.080000e-04,3.402800e+00,2.324800e+00
-4.075000e-04,3.491200e+00,2.321867e+00
-4.070000e-04,3.572933e+00,2.329333e+00
-4.065000e-04,3.660267e+00,2.333867e+00
-4.060000e-04,3.738533e+00,2.338400e+00
-4.055000e-04,3.816267e+00,2.345733e+00
-4.050000e-04,3.896267e+00,2.341733e+00
-4.045000e-04,3.967067e+00,2.346800e+00
-4.040000e-04,4.033467e+00,2.347333e+00
-4.035000e-04,4.108400e+00,2.346267e+00
-4.030000e-04,4.172934e+00,2.362133e+00
-4.025000e-04,4.248400e+00,2.367733e+00
-4.020000e-04,4.303467e+00,2.376800e+00
-4.015000e-04,4.368134e+00,2.379600e+00
-4.010000e-04,4.424800e+00,2.380267e+00
-4.005000e-04,4.474800e+00,2.378533e+00
-4.000000e-04,4.523467e+00,2.392667e+00
-3.995000e-04,4.571733e+00,2.393200e+00
-3.990000e-04,4.630133e+00,2.394933e+00
-3.985000e-04,4.663067e+00,2.396667e+00
-3.980000e-04,4.696000e+00,2.401733e+00
-3.975000e-04,4.745333e+00,2.410267e+00
-3.970000e-04,4.778800e+00,2.423200e+00
-3.965000e-04,4.812800e+00,2.424933e+00
-3.960000e-04,4.838933e+00,2.415333e+00
-3.955000e-04,4.860400e+00,2.424933e+00
-3.950000e-04,4.889867e+00,2.438000e+00
-3.945000e-04,4.903467e+00,2.440800e+00
-3.940000e-04,4.931867e+00,2.451600e+00
-3.935000e-04,4.950667e+00,2.459467e+00
-3.930000e-04,4.939867e+00,2.459467e+00
-3.925000e-04,4.954000e+00,2.469067e+00
-3.920000e-04,4.952267e+00,2.478800e+00
-3.915000e-04,4.952933e+00,2.479333e+00
-3.910000e-04,4.939867e+00,2.491200e+00
-3.905000e-04,4.938133e+00,2.491200e+00
-3.900000e-04,4.922800e+00,2.499067e+00
-3.895000e-04,4.910400e+00,2.496267e+00
-3.890000e-04,4.894400e+00,2.498000e+00
-3.885000e-04,4.868933e+00,2.511600e+00
-3.880000e-04,4.838933e+00,2.514933e+00
-3.875000e-04,4.822933e+00,2.526267e+00
-3.870000e-04,4.787867e+00,2.528533e+00
-3.865000e-04,4.742400e+00,2.533067e+00
-3.860000e-04,4.716400e+00,2.533067e+00
-3.855000e-04,4.671600e+00,2.541600e+00
-3.850000e-04,4.621067e+00,2.548933e+00
-3.845000e-04,4.579733e+00,2.567600e+00
-3.840000e-04,4.532533e+00,2.562533e+00
-3.835000e-04,4.479333e+00,2.555200e+00
-3.830000e-04,4.422534e+00,2.565867e+00
-3.825000e-04,4.364667e+00,2.572667e+00
-3.820000e-04,4.312533e+00,2.582933e+00
-3.815000e-04,4.238800e+00,2.585733e+00
-3.810000e-04,4.175200e+00,2.584000e+00
-3.805000e-04,4.111733e+00,2.590800e+00
-3.800000e-04,4.049334e+00,2.598800e+00
-3.795000e-04,3.968800e+00,2.597067e+00
-3.790000e-04,3.894000e+00,2.603333e+00
-3.785000e-04,3.821867e+00,2.601067e+00
-3.780000e-04,3.738533e+00,2.610133e+00
-3.775000e-04,3.663600e+00,2.611200e+00
-3.770000e-04,3.572933e+00,2.605600e+00
-3.765000e-04,3.490667e+00,2.608400e+00
-3.760000e-04,3.407333e+00,2.616933e+00
-3.755000e-04,3.322800e+00,2.612400e+00
-3.750000e-04,3.237200e+00,2.618000e+00
-3.745000e-04,3.150400e+00,2.617467e+00
-3.740000e-04,3.062400e+00,2.610133e+00
-3.735000e-04,2.971733e+00,2.620800e+00
-3.730000e-04,2.875333e+00,2.616933e+00
-3.725000e-04,2.796400e+00,2.622533e+00
-3.720000e-04,2.701733e+00,2.612400e+00
-3.715000e-04,2.605867e+00,2.617467e+00
-3.710000e-04,2.522533e+00,2.619200e+00
-3.705000e-04,2.427200e+00,2.619200e+00
-3.700000e-04,2.343200e+00,2.628267e+00
-3.695000e-04,2.244533e+00,2.625333e+00
-3.690000e-04,2.153867e+00,2.613467e+00
-3.685000e-04,2.063067e+00,2.624800e+00
-3.680000e-04,1.968933e+00,2.614667e+00
-3.675000e-04,1.874800e+00,2.603333e+00
-3.670000e-04,1.798800e+00,2.614667e+00
-3.665000e-04,1.705733e+00,2.610667e+00
-3.660000e-04,1.621733e+00,2.603333e+00
-3.655000e-04,1.537867e+00,2.606133e+00
-3.650000e-04,1.456133e+00,2.594267e+00
-3.645000e-04,1.368267e+00,2.606133e+00
-3.640000e-04,1.290533e+00,2.601067e+00
-3.635000e-04,1.213467e+00,2.590267e+00
-3.630000e-04,1.138533e+00,2.593067e+00
-3.625000e-04,1.069333e+00,2.587467e+00
-3.620000e-04,9.933333e-01,2.585200e+00
-3.615000e-04,9.196000e-01,2.571600e+00
-3.610000e-04,8.504000e-01,2.569333e+00
-3.605000e-04,7.766667e-01,2.569867e+00
-3.600000e-04,7.301334e-01,2.571600e+00
-3.595000e-04,6.508000e-01,2.561333e+00
-3.590000e-04,5.997334e-01,2.555733e+00
-3.585000e-04,5.368000e-01,2.554000e+00
-3.580000e-04,4.692000e-01,2.533067e+00
-3.575000e-04,4.216000e-01,2.543333e+00
-3.570000e-04,3.886667e-01,2.534267e+00
-3.565000e-04,3.405333e-01,2.544400e+00
-3.560000e-04,3.036000e-01,2.517200e+00
-3.555000e-04,2.622667e-01,2.521733e+00
-3.550000e-04,2.230667e-01,2.514933e+00
-3.545000e-04,1.936000e-01,2.507067e+00
-3.540000e-04,1.629333e-01,2.503600e+00
-3.535000e-04,1.249333e-01,2.499067e+00
-3.530000e-04,1.028000e-01,2.496800e+00
-3.525000e-04,9.946667e-02,2.489467e+00
-3.520000e-04,8.360000e-02,2.458400e+00
-3.515000e-04,6.653333e-02,2.472533e+00
-3.510000e-04,4.840000e-02,2.460667e+00
-3.505000e-04,4.213334e-02,2.464000e+00
-3.500000e-04,4.506667e-02,2.451600e+00
-3.495000e-04,3.706667e-02,2.442533e+00
-3.490000e-04,3.933333e-02,2.445867e+00
-3.485000e-04,5.466667e-02,2.442000e+00
-3.480000e-04,5.413333e-02,2.422133e+00
-3.475000e-04,6.373333e-02,2.431200e+00
-3.470000e-04,9.146667e-02,2.422133e+00
-3.465000e-04,9.720000e-02,2.415867e+00
-3.460000e-04,1.198667e-01,2.406267e+00
-3.455000e-04,1.533333e-01,2.396667e+00
-3.450000e-04,1.810667e-01,2.406267e+00
-3.445000e-04,2.168000e-01,2.394933e+00
-3.440000e-04,2.560000e-01,2.388133e+00
-3.435000e-04,2.917333e-01,2.392133e+00
-3.430000e-04,3.332000e-01,2.368933e+00
-3.425000e-04,3.768000e-01,2.376800e+00
-3.420000e-04,4.306667e-01,2.370000e+00
-3.415000e-04,4.857333e-01,2.363200e+00
-3.410000e-04,5.396000e-01,2.357600e+00
-3.405000e-04,5.878667e-01,2.355867e+00
-3.400000e-04,6.530667e-01,2.351867e+00
-3.395000e-04,7.092000e-01,2.342933e+00
-3.390000e-04,7.824000e-01,2.348533e+00
-3.385000e-04,8.430667e-01,2.345067e+00
-3.380000e-04,9.208000e-01,2.333867e+00
-3.375000e-04,9.877334e-01,2.325867e+00
-3.370000e-04,1.052267e+00,2.332667e+00
-3.365000e-04,1.136267e+00,2.330400e+00
-3.360000e-04,1.218000e+00,2.315733e+00
-3.355000e-04,1.284933e+00,2.321867e+00
-3.350000e-04,1.373333e+00,2.320267e+00
-3.345000e-04,1.452800e+00,2.323067e+00
-3.340000e-04,1.535600e+00,2.318000e+00
-3.335000e-04,1.626267e+00,2.309467e+00
-3.330000e-04,1.709067e+00,2.313467e+00
-3.325000e-04,1.789067e+00,2.311200e+00
-3.320000e-04,1.884933e+00,2.322533e+00
-3.315000e-04,1.967200e+00,2.314533e+00
-3.310000e-04,2.067600e+00,2.304400e+00
-3.305000e-04,2.154400e+00,2.315067e+00
-3.300000e-04,2.250267e+00,2.308933e+00
-3.295000e-04,2.335333e+00,2.306667e+00
-3.290000e-04,2.435067e+00,2.307733e+00
-3.285000e-04,2.508800e+00,2.310533e+00
-3.280000e-04,2.610933e+00,2.304400e+00
-3.275000e-04,2.699467e+00,2.313467e+00
-3.270000e-04,2.790133e+00,2.303200e+00
-3.265000e-04,2.882133e+00,2.316267e+00
-3.260000e-04,2.976267e+00,2.329333e+00
-3.255000e-04,3.065867e+00,2.314000e+00
-3.250000e-04,3.153200e+00,2.319067e+00
-3.245000e-04,3.228000e+00,2.321867e+00
-3.240000e-04,3.314267e+00,2.327067e+00
-3.235000e-04,3.410667e+00,2.321333e+00
-3.230000e-04,3.498000e+00,2.336133e+00
-3.225000e-04,3.593333e+00,2.343467e+00
-3.220000e-04,3.668133e+00,2.336133e+00
-3.215000e-04,3.736267e+00,2.334933e+00
-3.210000e-04,3.819067e+00,2.332667e+00
-3.205000e-04,3.905867e+00,2.344533e+00
-3.200000e-04,3.965467e+00,2.345067e+00
-3.195000e-04,4.049334e+00,2.354800e+00
-3.190000e-04,4.118534e+00,2.360933e+00
-3.185000e-04,4.188933e+00,2.363867e+00
-3.180000e-04,4.248933e+00,2.367733e+00
-3.175000e-04,4.309067e+00,2.371200e+00
-3.170000e-04,4.377200e+00,2.372267e+00
-3.165000e-04,4.424267e+00,2.376267e+00
-3.160000e-04,4.480400e+00,2.383600e+00
-3.155000e-04,4.541600e+00,2.389333e+00
-3.150000e-04,4.593867e+00,2.399467e+00
-3.145000e-04,4.643200e+00,2.400667e+00
-3.140000e-04,4.684534e+00,2.401733e+00
-3.135000e-04,4.711867e+00,2.414267e+00
-3.130000e-04,4.767467e+00,2.415333e+00
-3.125000e-04,4.792933e+00,2.419867e+00
-3.120000e-04,4.825200e+00,2.431200e+00
-3.115000e-04,4.866667e+00,2.432933e+00
-3.110000e-04,4.880800e+00,2.442533e+00
-3.105000e-04,4.904667e+00,2.428400e+00
-3.100000e-04,4.916000e+00,2.451600e+00
-3.095000e-04,4.932400e+00,2.458933e+00
-3.090000e-04,4.950000e+00,2.449333e+00
-3.085000e-04,4.950000e+00,2.460000e+00
-3.080000e-04,4.952267e+00,2.478800e+00
-3.075000e-04,4.955733e+00,2.470267e+00
-3.070000e-04,4.952267e+00,2.479867e+00
-3.065000e-04,4.947200e+00,2.490000e+00
-3.060000e-04,4.947733e+00,2.496800e+00
-3.055000e-04,4.924000e+00,2.501333e+00
-3.050000e-04,4.909200e+00,2.508133e+00
-3.045000e-04,4.902934e+00,2.508133e+00
-3.040000e-04,4.870667e+00,2.517200e+00
-3.035000e-04,4.849600e+00,2.520133e+00
-3.030000e-04,4.817333e+00,2.529733e+00
-3.025000e-04,4.784934e+00,2.533600e+00
-3.020000e-04,4.757200e+00,2.539867e+00
-3.015000e-04,4.714133e+00,2.551733e+00
-3.010000e-04,4.669867e+00,2.545600e+00
-3.005000e-04,4.625067e+00,2.544933e+00
-3.000000e-04,4.575733e+00,2.564800e+00
-2.995000e-04,4.531466e+00,2.554667e+00
-2.990000e-04,4.479333e+00,2.567067e+00
-2.985000e-04,4.423067e+00,2.577867e+00
-2.980000e-04,4.364667e+00,2.576133e+00
-2.975000e-04,4.302267e+00,2.585733e+00
-2.970000e-04,4.235333e+00,2.582933e+00
-2.965000e-04,4.171867e+00,2.587467e+00
-2.960000e-04,4.108400e+00,2.587467e+00
-2.955000e-04,4.030000e+00,2.592533e+00
-2.950000e-04,3.971067e+00,2.599867e+00
-2.945000e-04,3.893333e+00,2.597067e+00
-2.940000e-04,3.811067e+00,2.601067e+00
-2.935000e-04,3.732267e+00,2.608933e+00
-2.930000e-04,3.647733e+00,2.606667e+00
-2.925000e-04,3.574667e+00,2.607200e+00
-2.920000e-04,3.488933e+00,2.610133e+00
-2.915000e-04,3.406667e+00,2.606133e+00
-2.910000e-04,3.323333e+00,2.610133e+00
-2.905000e-04,3.232533e+00,2.611733e+00
-2.900000e-04,3.137333e+00,2.621467e+00
-2.895000e-04,3.057867e+00,2.618533e+00
-2.890000e-04,2.954667e+00,2.612400e+00
-2.885000e-04,2.870133e+00,2.612400e+00
-2.880000e-04,2.751600e+00,2.623733e+00
-2.875000e-04,2.701200e+00,2.623067e+00
-2.870000e-04,2.604133e+00,2.618000e+00
-2.865000e-04,2.507733e+00,2.622000e+00
-2.860000e-04,2.415867e+00,2.610133e+00
-2.855000e-04,2.323333e+00,2.622000e+00
-2.850000e-04,2.234400e+00,2.618000e+00
-2.845000e-04,2.150400e+00,2.620267e+00
-2.840000e-04,2.057333e+00,2.598800e+00
-2.835000e-04,1.966133e+00,2.605600e+00
-2.830000e-04,1.886133e+00,2.610133e+00
-2.825000e-04,1.790800e+00,2.613467e+00
-2.820000e-04,1.703467e+00,2.610133e+00
-2.815000e-04,1.619467e+00,2.608933e+00
-2.810000e-04,1.531067e+00,2.601067e+00
-2.805000e-04,1.449333e+00,2.595333e+00
-2.800000e-04,1.360933e+00,2.592000e+00
-2.795000e-04,1.280933e+00,2.588533e+00
-2.790000e-04,1.208933e+00,2.589733e+00
-2.785000e-04,1.130000e+00,2.577867e+00
-2.780000e-04,1.043200e+00,2.582933e+00
-2.775000e-04,9.870667e-01,2.574933e+00
-2.770000e-04,9.060000e-01,2.573867e+00
-2.765000e-04,8.418667e-01,2.565333e+00
-2.760000e-04,7.664000e-01,2.571600e+00
-2.755000e-04,7.012000e-01,2.568133e+00
-2.750000e-04,6.417333e-01,2.567067e+00
-2.745000e-04,5.798666e-01,2.554000e+00
-2.740000e-04,5.282667e-01,2.548933e+00
-2.735000e-04,4.732000e-01,2.537600e+00
-2.730000e-04,4.228000e-01,2.534267e+00
-2.725000e-04,3.768000e-01,2.532533e+00
-2.720000e-04,3.332000e-01,2.519467e+00
-2.715000e-04,2.866667e-01,2.526267e+00
-2.710000e-04,2.492000e-01,2.516133e+00
-2.705000e-04,2.016000e-01,2.511067e+00
-2.700000e-04,1.765333e-01,2.510400e+00
-2.695000e-04,1.476000e-01,2.496800e+00
-2.690000e-04,1.233333e-01,2.492267e+00
-2.685000e-04,1.062667e-01,2.479867e+00
-2.680000e-04,8.360000e-02,2.485600e+00
-2.675000e-04,6.600000e-02,2.469733e+00
-2.670000e-04,4.613334e-02,2.468533e+00
-2.665000e-04,4.213334e-02,2.457733e+00
-2.660000e-04,3.133333e-02,2.451600e+00
-2.655000e-04,3.026667e-02,2.450400e+00
-2.650000e-04,3.133333e-02,2.450400e+00
-2.645000e-04,2.746667e-02,2.435200e+00
-2.640000e-04,4.960000e-02,2.428933e+00
-2.635000e-04,5.013333e-02,2.430000e+00
-2.630000e-04,6.426667e-02,2.427733e+00
-2.625000e-04,8.186667e-02,2.418667e+00
-2.620000e-04,1.062667e-01,2.415333e+00
-2.615000e-04,1.204000e-01,2.402933e+00
-2.610000e-04,1.629333e-01,2.405200e+00
-2.605000e-04,1.925333e-01,2.388133e+00
-2.600000e-04,2.197333e-01,2.397200e+00
-2.595000e-04,2.492000e-01,2.380800e+00
-2.590000e-04,2.980000e-01,2.381333e+00
-2.585000e-04,3.370667e-01,2.375733e+00
-2.580000e-04,3.649333e-01,2.363200e+00
-2.575000e-04,4.238667e-01,2.363867e+00
-2.570000e-04,4.817334e-01,2.356400e+00
-2.565000e-04,5.350667e-01,2.360400e+00
-2.560000e-04,5.894667e-01,2.354133e+00
-2.555000e-04,6.473333e-01,2.340667e+00
-2.550000e-04,7.154667e-01,2.342933e+00
-2.545000e-04,7.789333e-01,2.337733e+00
-2.540000e-04,8.549333e-01,2.340667e+00
-2.535000e-04,9.224000e-01,2.332667e+00
-2.530000e-04,9.820000e-01,2.332667e+00
-2.525000e-04,1.066000e+00,2.319067e+00
-2.520000e-04,1.143067e+00,2.311200e+00
-2.515000e-04,1.221867e+00,2.319600e+00
-2.510000e-04,1.295067e+00,2.321333e+00
