Time(s),CH1V,CH2V
-2.631200e-04,4.453333e-02,-2.726667e-01
-2.626000e-04,-3.426667e-02,-2.826667e-01
-2.620800e-04,-1.025333e-01,-2.814667e-01
-2.615600e-04,-1.728000e-01,-2.872000e-01
-2.610400e-04,-2.401333e-01,-2.833333e-01
-2.605200e-04,-3.112000e-01,-2.881333e-01
-2.600000e-04,-3.872000e-01,-2.977333e-01
-2.594800e-04,-4.457333e-01,-2.969333e-01
-2.589600e-04,-5.333334e-01,-2.976000e-01
-2.584400e-04,-5.956000e-01,-3.013333e-01
-2.579200e-04,-6.617333e-01,-3.046667e-01
-2.574000e-04,-7.269334e-01,-3.088000e-01
-2.568800e-04,-7.862667e-01,-2.968000e-01
-2.563600e-04,-8.610667e-01,-3.072000e-01
-2.558400e-04,-9.209334e-01,-3.104000e-01
-2.553200e-04,-9.866667e-01,-3.096000e-01
-2.548000e-04,-1.047333e+00,-3.088000e-01
-2.542800e-04,-1.109467e+00,-3.033333e-01
-2.537600e-04,-1.170933e+00,-3.225333e-01
-2.532400e-04,-1.230000e+00,-3.024000e-01
-2.527200e-04,-1.286533e+00,-3.069333e-01
-2.522000e-04,-1.352400e+00,-3.085333e-01
-2.516800e-04,-1.410667e+00,-3.108000e-01
-2.511600e-04,-1.459600e+00,-3.005333e-01
-2.506400e-04,-1.512533e+00,-2.945333e-01
-2.501200e-04,-1.578533e+00,-2.970667e-01
-2.496000e-04,-1.621733e+00,-3.046667e-01
-2.490800e-04,-1.667067e+00,-3.030667e-01
-2.485600e-04,-1.713867e+00,-2.864000e-01
-2.480400e-04,-1.759200e+00,-2.933333e-01
-2.475200e-04,-1.816800e+00,-2.837333e-01
-2.470000e-04,-1.839333e+00,-2.809334e-01
-2.464800e-04,-1.881600e+00,-2.729333e-01
-2.459600e-04,-1.933333e+00,-2.688000e-01
-2.454400e-04,-1.967200e+00,-2.590667e-01
-2.449200e-04,-2.001067e+00,-2.554667e-01
-2.444000e-04,-2.030133e+00,-2.552000e-01
-2.438800e-04,-2.069467e+00,-2.656000e-01
-2.433600e-04,-2.094933e+00,-2.481333e-01
-2.428400e-04,-2.119200e+00,-2.406667e-01
-2.423200e-04,-2.154933e+00,-2.405333e-01
-2.418000e-04,-2.166800e+00,-2.321333e-01
-2.412800e-04,-2.184933e+00,-2.242667e-01
-2.407600e-04,-2.205733e+00,-2.133333e-01
-2.402400e-04,-2.226133e+00,-2.170667e-01
-2.397200e-04,-2.250933e+00,-2.044000e-01
-2.392000e-04,-2.261600e+00,-1.992000e-01
-2.386800e-04,-2.278133e+00,-1.856000e-01
-2.381600e-04,-2.278800e+00,-1.737333e-01
-2.376400e-04,-2.282533e+00,-1.764000e-01
-2.371200e-04,-2.291600e+00,-1.630667e-01
-2.366000e-04,-2.284133e+00,-1.560000e-01
-2.360800e-04,-2.286400e+00,-1.405333e-01
-2.355600e-04,-2.293600e+00,-1.416000e-01
-2.350400e-04,-2.286400e+00,-1.354667e-01
-2.345200e-04,-2.279600e+00,-1.266667e-01
-2.340000e-04,-2.257333e+00,-1.201333e-01
-2.334800e-04,-2.247867e+00,-1.132000e-01
-2.329600e-04,-2.234400e+00,-1.002667e-01
-2.324400e-04,-2.222933e+00,-9.293333e-02
-2.319200e-04,-2.204133e+00,-9.240000e-02
-2.314000e-04,-2.187333e+00,-8.293334e-02
-2.308800e-04,-2.165067e+00,-6.680000e-02
-2.303600e-04,-2.135200e+00,-6.080000e-02
-2.298400e-04,-2.113067e+00,-5.226667e-02
-2.293200e-04,-2.087467e+00,-4.546667e-02
-2.288000e-04,-2.065467e+00,-3.453333e-02
-2.282800e-04,-2.017600e+00,-3.346667e-02
-2.277600e-04,-1.990000e+00,-1.933333e-02
-2.272400e-04,-1.953200e+00,-1.040000e-02
-2.267200e-04,-1.906400e+00,3.200000e-03
-2.262000e-04,-1.872400e+00,8.666667e-03
-2.256800e-04,-1.830267e+00,2.013333e-02
-2.251600e-04,-1.790267e+00,2.960000e-02
-2.246400e-04,-1.732533e+00,3.760000e-02
-2.241200e-04,-1.706133e+00,4.613334e-02
-2.236000e-04,-1.651600e+00,5.093333e-02
-2.230800e-04,-1.596000e+00,5.080000e-02
-2.225600e-04,-1.550933e+00,6.960000e-02
-2.220400e-04,-1.497600e+00,7.080000e-02
-2.215200e-04,-1.434267e+00,8.026667e-02
-2.210000e-04,-1.376533e+00,9.466667e-02
-2.204800e-04,-1.320933e+00,9.506667e-02
-2.199600e-04,-1.270667e+00,9.213334e-02
-2.194400e-04,-1.204667e+00,1.096000e-01
-2.189200e-04,-1.146933e+00,1.177333e-01
-2.184000e-04,-1.079467e+00,1.296000e-01
-2.178800e-04,-1.031467e+00,1.318667e-01
-2.173600e-04,-9.609333e-01,1.413333e-01
-2.168400e-04,-8.973333e-01,1.556000e-01
-2.163200e-04,-8.321334e-01,1.573333e-01
-2.158000e-04,-7.633333e-01,1.576000e-01
-2.152800e-04,-6.920000e-01,1.804000e-01
-2.147600e-04,-6.260000e-01,1.789333e-01
-2.142400e-04,-5.861334e-01,1.936000e-01
-2.137200e-04,-4.917333e-01,1.965333e-01
-2.132000e-04,-4.288000e-01,2.006667e-01
-2.126800e-04,-3.450667e-01,2.105333e-01
-2.121600e-04,-2.836000e-01,2.085333e-01
-2.116400e-04,-2.104000e-01,2.089333e-01
-2.111200e-04,-1.434667e-01,2.106667e-01
-2.106000e-04,-6.866667e-02,2.260000e-01
-2.100800e-04,-7.466667e-03,2.233333e-01
-2.095600e-04,6.973334e-02,2.346667e-01
-2.090400e-04,1.422667e-01,2.365333e-01
-2.085200e-04,2.074667e-01,2.310667e-01
-2.080000e-04,2.781333e-01,2.414667e-01
-2.074800e-04,3.518667e-01,2.373333e-01
-2.069600e-04,4.197333e-01,2.404000e-01
-2.064400e-04,4.929333e-01,2.446667e-01
-2.059200e-04,5.576000e-01,2.472000e-01
-2.054000e-04,6.238667e-01,2.501333e-01
-2.048800e-04,6.916000e-01,2.556000e-01
-2.043600e-04,7.589334e-01,2.560000e-01
-2.038400e-04,8.282667e-01,2.489333e-01
-2.033200e-04,8.954667e-01,2.509333e-01
-2.028000e-04,9.590667e-01,2.476000e-01
-2.022800e-04,1.019733e+00,2.494667e-01
-2.017600e-04,1.074933e+00,2.614667e-01
-2.012400e-04,1.144667e+00,2.541333e-01
-2.007200e-04,1.207467e+00,2.593333e-01
-2.002000e-04,1.266800e+00,2.460000e-01
-1.996800e-04,1.323200e+00,2.582667e-01
-1.991600e-04,1.375067e+00,2.446667e-01
-1.986400e-04,1.435467e+00,2.478667e-01
-1.981200e-04,1.491600e+00,2.433333e-01
-1.976000e-04,1.544133e+00,2.452000e-01
-1.970800e-04,1.598267e+00,2.469333e-01
-1.965600e-04,1.642933e+00,2.445333e-01
-1.960400e-04,1.687200e+00,2.297333e-01
-1.955200e-04,1.732667e+00,2.389333e-01
-1.950000e-04,1.774000e+00,2.274667e-01
-1.944800e-04,1.818800e+00,2.208000e-01
-1.939600e-04,1.872400e+00,2.196000e-01
-1.934400e-04,1.904533e+00,2.252000e-01
-1.929200e-04,1.936400e+00,2.233333e-01
-1.924000e-04,1.976667e+00,2.078667e-01
-1.918800e-04,2.007333e+00,2.084000e-01
-1.913600e-04,2.046400e+00,2.116000e-01
-1.908400e-04,2.076267e+00,1.992000e-01
-1.903200e-04,2.094667e+00,1.886667e-01
-1.898000e-04,2.125067e+00,1.836000e-01
-1.892800e-04,2.148400e+00,1.762667e-01
-1.887600e-04,2.171600e+00,1.789333e-01
-1.882400e-04,2.185733e+00,1.589333e-01
-1.877200e-04,2.203067e+00,1.680000e-01
-1.872000e-04,2.219867e+00,1.553333e-01
-1.866800e-04,2.240933e+00,1.492000e-01
-1.861600e-04,2.247733e+00,1.405333e-01
-1.856400e-04,2.255867e+00,1.366667e-01
-1.851200e-04,2.263733e+00,1.265333e-01
-1.846000e-04,2.260933e+00,1.137333e-01
-1.840800e-04,2.276133e+00,1.105333e-01
-1.835600e-04,2.259467e+00,1.022667e-01
-1.830400e-04,2.264400e+00,9.946667e-02
-1.825200e-04,2.264133e+00,8.586667e-02
-1.820000e-04,2.255867e+00,6.973334e-02
-1.814800e-04,2.249733e+00,6.333333e-02
-1.809600e-04,2.241467e+00,5.813333e-02
-1.804400e-04,2.219733e+00,4.333333e-02
-1.799200e-04,2.213600e+00,3.853333e-02
-1.794000e-04,2.189333e+00,3.720000e-02
-1.788800e-04,2.177733e+00,2.573333e-02
-1.783600e-04,2.148133e+00,1.706667e-02
-1.778400e-04,2.124667e+00,4.533333e-03
-1.773200e-04,2.104400e+00,-8.000000e-04
-1.768000e-04,2.071200e+00,-2.933333e-03
-1.762800e-04,2.034400e+00,-1.826667e-02
-1.757600e-04,2.023067e+00,-2.666667e-02
-1.752400e-04,1.980133e+00,-3.466667e-02
-1.747200e-04,1.939067e+00,-4.013333e-02
-1.742000e-04,1.909333e+00,-5.240000e-02
-1.736800e-04,1.868667e+00,-5.493334e-02
-1.731600e-04,1.826800e+00,-6.760000e-02
-1.726400e-04,1.770400e+00,-8.840000e-02
-1.721200e-04,1.740667e+00,-8.720000e-02
-1.716000e-04,1.684133e+00,-9.880000e-02
-1.710800e-04,1.643333e+00,-9.200000e-02
-1.705600e-04,1.587333e+00,-1.108000e-01
-1.700400e-04,1.533467e+00,-1.096000e-01
-1.695200e-04,1.493467e+00,-1.388000e-01
-1.690000e-04,1.432667e+00,-1.284000e-01
-1.684800e-04,1.378933e+00,-1.417333e-01
-1.679600e-04,1.317333e+00,-1.490667e-01
-1.674400e-04,1.268400e+00,-1.486667e-01
-1.669200e-04,1.202267e+00,-1.600000e-01
-1.664000e-04,1.146933e+00,-1.634667e-01
-1.658800e-04,1.082800e+00,-1.844000e-01
-1.653600e-04,1.028133e+00,-1.808000e-01
-1.648400e-04,9.726667e-01,-1.845333e-01
-1.643200e-04,8.946667e-01,-1.920000e-01
-1.638000e-04,8.240000e-01,-2.114667e-01
-1.632800e-04,7.745333e-01,-2.154667e-01
-1.627600e-04,7.030666e-01,-2.245333e-01
-1.622400e-04,6.341333e-01,-2.177333e-01
-1.617200e-04,5.661333e-01,-2.212000e-01
-1.612000e-04,4.796000e-01,-2.456000e-01
-1.606800e-04,4.170667e-01,-2.454667e-01
-1.601600e-04,3.624000e-01,-2.462667e-01
-1.596400e-04,2.838667e-01,-2.654667e-01
-1.591200e-04,2.094667e-01,-2.625333e-01
-1.586000e-04,1.441333e-01,-2.642667e-01
-1.580800e-04,7.080000e-02,-2.741333e-01
-1.575600e-04,4.266667e-03,-2.717333e-01
-1.570400e-04,-6.320000e-02,-2.649333e-01
-1.565200e-04,-1.409333e-01,-2.820000e-01
-1.560000e-04,-2.134667e-01,-2.785333e-01
-1.554800e-04,-2.749333e-01,-2.842667e-01
-1.549600e-04,-3.526667e-01,-2.838667e-01
-1.544400e-04,-4.226667e-01,-2.893333e-01
-1.539200e-04,-4.886667e-01,-2.830667e-01
-1.534000e-04,-5.650667e-01,-3.002667e-01
-1.528800e-04,-6.197333e-01,-2.982667e-01
-1.523600e-04,-6.929333e-01,-2.956000e-01
-1.518400e-04,-7.625334e-01,-2.930667e-01
-1.513200e-04,-8.146667e-01,-2.932000e-01
-1.508000e-04,-8.881333e-01,-3.058667e-01
-1.502800e-04,-9.508000e-01,-3.086667e-01
-1.497600e-04,-1.024933e+00,-3.065333e-01
-1.492400e-04,-1.087333e+00,-3.050667e-01
-1.487200e-04,-1.139067e+00,-3.006667e-01
-1.482000e-04,-1.210667e+00,-3.025333e-01
-1.476800e-04,-1.263733e+00,-3.022667e-01
-1.471600e-04,-1.310133e+00,-2.908000e-01
-1.466400e-04,-1.372667e+00,-2.938667e-01
-1.461200e-04,-1.449733e+00,-3.073334e-01
-1.456000e-04,-1.493067e+00,-3.010667e-01
-1.450800e-04,-1.545467e+00,-2.980000e-01
-1.445600e-04,-1.599733e+00,-3.005333e-01
-1.440400e-04,-1.642133e+00,-2.934667e-01
-1.435200e-04,-1.695067e+00,-2.916000e-01
-1.430000e-04,-1.762933e+00,-2.892000e-01
-1.424800e-04,-1.785733e+00,-2.840000e-01
-1.419600e-04,-1.830667e+00,-2.906667e-01
-1.414400e-04,-1.875733e+00,-2.756000e-01
-1.409200e-04,-1.912133e+00,-2.753333e-01
-1.404000e-04,-1.961067e+00,-2.778667e-01
-1.398800e-04,-1.987867e+00,-2.706667e-01
-1.393600e-04,-2.027600e+00,-2.582667e-01
-1.388400e-04,-2.057200e+00,-2.572000e-01
-1.383200e-04,-2.094267e+00,-2.552000e-01
-1.378000e-04,-2.112000e+00,-2.532000e-01
-1.372800e-04,-2.143467e+00,-2.348000e-01
-1.367600e-04,-2.157467e+00,-2.302667e-01
-1.362400e-04,-2.198800e+00,-2.281333e-01
-1.357200e-04,-2.205467e+00,-2.122667e-01
-1.352000e-04,-2.223467e+00,-2.129333e-01
-1.346800e-04,-2.238000e+00,-2.128000e-01
-1.341600e-04,-2.256933e+00,-2.017333e-01
-1.336400e-04,-2.267333e+00,-2.022667e-01
-1.331200e-04,-2.270533e+00,-1.881333e-01
-1.326000e-04,-2.274400e+00,-1.772000e-01
-1.320800e-04,-2.300133e+00,-1.737333e-01
-1.315600e-04,-2.297867e+00,-1.581333e-01
-1.310400e-04,-2.289200e+00,-1.661333e-01
-1.305200e-04,-2.284133e+00,-1.529333e-01
-1.300000e-04,-2.293867e+00,-1.450667e-01
-1.294800e-04,-2.263467e+00,-1.381333e-01
-1.289600e-04,-2.264267e+00,-1.201333e-01
-1.284400e-04,-2.260133e+00,-1.186667e-01
-1.279200e-04,-2.251600e+00,-1.170667e-01
-1.274000e-04,-2.228800e+00,-1.064000e-01
-1.268800e-04,-2.212267e+00,-1.020000e-01
-1.263600e-04,-2.197067e+00,-8.146667e-02
-1.258400e-04,-2.176667e+00,-7.706667e-02
-1.253200e-04,-2.141733e+00,-6.386667e-02
-1.248000e-04,-2.112400e+00,-5.160000e-02
-1.242800e-04,-2.095867e+00,-4.920000e-02
-1.237600e-04,-2.066267e+00,-4.306667e-02
-1.232400e-04,-2.037467e+00,-3.253333e-02
-1.227200e-04,-2.003467e+00,-2.293333e-02
-1.222000e-04,-1.971867e+00,-1.813333e-02
-1.216800e-04,-1.925200e+00,-2.666667e-03
-1.211600e-04,-1.893067e+00,8.000000e-04
-1.206400e-04,-1.859867e+00,1.386667e-02
-1.201200e-04,-1.815333e+00,1.480000e-02
-1.196000e-04,-1.760933e+00,1.906667e-02
-1.190800e-04,-1.723600e+00,4.213334e-02
-1.185600e-04,-1.675333e+00,3.640000e-02
-1.180400e-04,-1.633733e+00,5.853333e-02
-1.175200e-04,-1.578533e+00,6.466667e-02
-1.170000e-04,-1.524667e+00,7.693333e-02
-1.164800e-04,-1.479600e+00,7.453334e-02
-1.159600e-04,-1.420400e+00,8.586667e-02
-1.154400e-04,-1.341200e+00,9.800000e-02
-1.149200e-04,-1.302533e+00,1.001333e-01
-1.144000e-04,-1.233733e+00,1.114667e-01
-1.138800e-04,-1.168800e+00,1.160000e-01
-1.133600e-04,-1.117200e+00,1.232000e-01
-1.128400e-04,-1.055200e+00,1.290667e-01
-1.123200e-04,-9.954666e-01,1.441333e-01
-1.118000e-04,-9.236000e-01,1.410667e-01
-1.112800e-04,-8.620000e-01,1.540000e-01
-1.107600e-04,-7.914667e-01,1.561333e-01
-1.102400e-04,-7.202667e-01,1.800000e-01
-1.097200e-04,-6.506667e-01,1.809333e-01
-1.092000e-04,-5.870667e-01,1.894667e-01
-1.086800e-04,-5.206667e-01,1.796000e-01
-1.081600e-04,-4.461333e-01,2.014667e-01
-1.076400e-04,-3.688000e-01,2.105333e-01
-1.071200e-04,-2.998667e-01,2.113333e-01
-1.066000e-04,-2.465333e-01,2.120000e-01
-1.060800e-04,-1.628000e-01,2.185333e-01
-1.055600e-04,-1.033333e-01,2.226667e-01
-1.050400e-04,-2.360000e-02,2.234667e-01
-1.045200e-04,3.626667e-02,2.217333e-01
-1.040000e-04,1.110667e-01,2.250667e-01
-1.034800e-04,1.836000e-01,2.488000e-01
-1.029600e-04,2.461333e-01,2.350667e-01
-1.024400e-04,3.204000e-01,2.377333e-01
-1.019200e-04,3.905333e-01,2.376000e-01
-1.014000e-04,4.580000e-01,2.505333e-01
-1.008800e-04,5.329334e-01,2.522667e-01
-1.003600e-04,6.018667e-01,2.550667e-01
-9.984000e-05,6.732000e-01,2.448000e-01
-9.932000e-05,7.310667e-01,2.572000e-01
-9.880000e-05,7.980000e-01,2.492000e-01
-9.828000e-05,8.717334e-01,2.468000e-01
-9.776000e-05,9.312000e-01,2.600000e-01
-9.724000e-05,9.980000e-01,2.662667e-01
-9.672000e-05,1.060133e+00,2.718667e-01
-9.620000e-05,1.120667e+00,2.573333e-01
-9.568000e-05,1.178667e+00,2.586667e-01
-9.516000e-05,1.238533e+00,2.596000e-01
-9.464000e-05,1.292933e+00,2.473333e-01
-9.412000e-05,1.354933e+00,2.536000e-01
-9.360000e-05,1.399467e+00,2.626667e-01
-9.308000e-05,1.469733e+00,2.541333e-01
-9.256000e-05,1.516933e+00,2.426667e-01
-9.204000e-05,1.562933e+00,2.393333e-01
-9.152000e-05,1.625467e+00,2.486667e-01
-9.100000e-05,1.680933e+00,2.349333e-01
-9.048000e-05,1.714533e+00,2.396000e-01
-8.996000e-05,1.761333e+00,2.292000e-01
-8.944000e-05,1.804800e+00,2.304000e-01
-8.892000e-05,1.846533e+00,2.229333e-01
-8.840000e-05,1.895200e+00,2.254667e-01
-8.788000e-05,1.925200e+00,2.206667e-01
-8.736000e-05,1.964800e+00,2.169333e-01
-8.684000e-05,1.995600e+00,2.114667e-01
-8.632000e-05,2.028933e+00,2.065333e-01
-8.580000e-05,2.067867e+00,2.009333e-01
-8.528000e-05,2.092000e+00,1.986667e-01
-8.476000e-05,2.125067e+00,1.818667e-01
-8.424000e-05,2.142000e+00,1.853333e-01
-8.372000e-05,2.162933e+00,1.870667e-01
-8.320000e-05,2.181467e+00,1.690667e-01
-8.268000e-05,2.210800e+00,1.609333e-01
-8.216000e-05,2.227200e+00,1.637333e-01
-8.164000e-05,2.228000e+00,1.556000e-01
-8.112000e-05,2.241333e+00,1.408000e-01
-8.060000e-05,2.259467e+00,1.385333e-01
-8.008000e-05,2.266133e+00,1.378667e-01
-7.956000e-05,2.270800e+00,1.274667e-01
-7.904000e-05,2.265733e+00,1.146667e-01
-7.852000e-05,2.264533e+00,1.016000e-01
-7.800000e-05,2.270800e+00,1.009333e-01
-7.748000e-05,2.271867e+00,9.040000e-02
-7.696000e-05,2.257200e+00,8.013333e-02
-7.644000e-05,2.265600e+00,7.653333e-02
-7.592000e-05,2.239200e+00,6.706667e-02
-7.540000e-05,2.233467e+00,5.960000e-02
-7.488000e-05,2.212667e+00,5.106667e-02
-7.436000e-05,2.204000e+00,3.986667e-02
-7.384000e-05,2.186400e+00,3.226667e-02
-7.332000e-05,2.166667e+00,2.986667e-02
-7.280000e-05,2.126800e+00,1.226667e-02
-7.228000e-05,2.115600e+00,8.133333e-03
-7.176000e-05,2.091200e+00,7.600000e-03
-7.124000e-05,2.070133e+00,-1.613333e-02
-7.072000e-05,2.019067e+00,-2.506667e-02
-7.020000e-05,1.997600e+00,-3.253333e-02
-6.968000e-05,1.960133e+00,-3.360000e-02
-6.916000e-05,1.919200e+00,-4.786667e-02
-6.864000e-05,1.892133e+00,-5.853333e-02
-6.812000e-05,1.837733e+00,-7.360000e-02
-6.760000e-05,1.788800e+00,-7.466666e-02
-6.708000e-05,1.749333e+00,-8.333334e-02
-6.656000e-05,1.704800e+00,-8.493333e-02
-6.604000e-05,1.674133e+00,-9.920000e-02
-6.552000e-05,1.624800e+00,-1.068000e-01
-6.500000e-05,1.565733e+00,-1.092000e-01
-6.448000e-05,1.506400e+00,-1.260000e-01
-6.396000e-05,1.456267e+00,-1.320000e-01
-6.344000e-05,1.407600e+00,-1.416000e-01
-6.292000e-05,1.350267e+00,-1.520000e-01
-6.240000e-05,1.280000e+00,-1.557333e-01
-6.188000e-05,1.225867e+00,-1.772000e-01
-6.136000e-05,1.180933e+00,-1.700000e-01
-6.084000e-05,1.110667e+00,-1.649333e-01
-6.032000e-05,1.042133e+00,-1.942667e-01
-5.980000e-05,9.832000e-01,-2.046667e-01
-5.928000e-05,9.244000e-01,-2.052000e-01
-5.876000e-05,8.525333e-01,-2.137333e-01
-5.824000e-05,7.873334e-01,-2.228000e-01
-5.772000e-05,7.302667e-01,-2.300000e-01
-5.720000e-05,6.505333e-01,-2.336000e-01
-5.668000e-05,5.948000e-01,-2.276000e-01
-5.616000e-05,5.157334e-01,-2.386667e-01
-5.564000e-05,4.513333e-01,-2.444000e-01
-5.512000e-05,3.813334e-01,-2.462667e-01
-5.460000e-05,3.190667e-01,-2.562667e-01
-5.408000e-05,2.480000e-01,-2.542667e-01
-5.356000e-05,1.640000e-01,-2.692000e-01
-5.304000e-05,9.760000e-02,-2.734667e-01
-5.252000e-05,3.920000e-02,-2.773333e-01
-5.200000e-05,-3.826667e-02,-2.797333e-01
-5.148000e-05,-1.116000e-01,-2.784000e-01
-5.096000e-05,-1.792000e-01,-3.001333e-01
-5.044000e-05,-2.506667e-01,-2.921333e-01
-4.992000e-05,-3.184000e-01,-2.946667e-01
-4.940000e-05,-3.898667e-01,-3.054667e-01
-4.888000e-05,-4.618667e-01,-2.956000e-01
-4.836000e-05,-5.265334e-01,-3.074667e-01
-4.784000e-05,-5.906667e-01,-3.046667e-01
-4.732000e-05,-6.658667e-01,-3.082667e-01
-4.680000e-05,-7.505333e-01,-3.114667e-01
-4.628000e-05,-7.937334e-01,-3.105333e-01
-4.576000e-05,-8.629333e-01,-3.072000e-01
-4.524000e-05,-9.246667e-01,-3.128000e-01
-4.472000e-05,-9.929333e-01,-2.984000e-01
-4.420000e-05,-1.051467e+00,-3.052000e-01
-4.368000e-05,-1.117333e+00,-2.933333e-01
-4.316000e-05,-1.181600e+00,-3.137333e-01
-4.264000e-05,-1.254267e+00,-3.117333e-01
-4.212000e-05,-1.292000e+00,-3.065333e-01
-4.160000e-05,-1.352133e+00,-3.088000e-01
-4.108000e-05,-1.405467e+00,-3.060000e-01
-4.056000e-05,-1.466667e+00,-3.014667e-01
-4.004000e-05,-1.518800e+00,-2.994667e-01
-3.952000e-05,-1.569600e+00,-2.953333e-01
-3.900000e-05,-1.621200e+00,-3.001333e-01
-3.848000e-05,-1.688133e+00,-2.916000e-01
-3.796000e-05,-1.723867e+00,-2.893333e-01
-3.744000e-05,-1.759067e+00,-2.808000e-01
-3.692000e-05,-1.801600e+00,-2.830667e-01
-3.640000e-05,-1.847733e+00,-2.829333e-01
-3.588000e-05,-1.888133e+00,-2.708000e-01
-3.536000e-05,-1.932667e+00,-2.601333e-01
-3.484000e-05,-1.959867e+00,-2.656000e-01
-3.432000e-05,-2.002400e+00,-2.550667e-01
-3.380000e-05,-2.037200e+00,-2.593333e-01
-3.328000e-05,-2.054400e+00,-2.364000e-01
-3.276000e-05,-2.089467e+00,-2.474667e-01
-3.224000e-05,-2.129733e+00,-2.452000e-01
-3.172000e-05,-2.138800e+00,-2.356000e-01
-3.120000e-05,-2.164933e+00,-2.288000e-01
-3.068000e-05,-2.182800e+00,-2.205333e-01
-3.016000e-05,-2.215200e+00,-2.129333e-01
-2.964000e-05,-2.219067e+00,-1.976000e-01
-2.912000e-05,-2.240267e+00,-2.053333e-01
-2.860000e-05,-2.255600e+00,-1.984000e-01
-2.808000e-05,-2.260133e+00,-1.945333e-01
-2.756000e-05,-2.278800e+00,-1.764000e-01
-2.704000e-05,-2.278800e+00,-1.665333e-01
-2.652000e-05,-2.268933e+00,-1.658667e-01
-2.600000e-05,-2.278400e+00,-1.570667e-01
-2.548000e-05,-2.276267e+00,-1.504000e-01
-2.496000e-05,-2.282267e+00,-1.432000e-01
-2.444000e-05,-2.276133e+00,-1.373333e-01
-2.392000e-05,-2.266133e+00,-1.237333e-01
-2.340000e-05,-2.252000e+00,-1.194667e-01
-2.288000e-05,-2.246800e+00,-1.126667e-01
-2.236000e-05,-2.240000e+00,-1.076000e-01
-2.184000e-05,-2.212000e+00,-9.320000e-02
-2.132000e-05,-2.205467e+00,-8.693334e-02
-2.080000e-05,-2.178267e+00,-6.960000e-02
-2.028000e-05,-2.141867e+00,-7.653333e-02
-1.976000e-05,-2.122667e+00,-5.373333e-02
-1.924000e-05,-2.103067e+00,-4.893333e-02
-1.872000e-05,-2.083467e+00,-4.026667e-02
-1.820000e-05,-2.047867e+00,-3.426667e-02
-1.768000e-05,-2.030800e+00,-2.413333e-02
-1.716000e-05,-1.989200e+00,-1.440000e-02
-1.664000e-05,-1.952667e+00,-8.533333e-03
-1.612000e-05,-1.897600e+00,8.933334e-03
-1.560000e-05,-1.867867e+00,4.800000e-03
-1.508000e-05,-1.827867e+00,3.160000e-02
-1.456000e-05,-1.782000e+00,3.200000e-02
-1.404000e-05,-1.736533e+00,3.560000e-02
-1.352000e-05,-1.691867e+00,5.200000e-02
-1.300000e-05,-1.635467e+00,5.026667e-02
-1.248000e-05,-1.579200e+00,6.293333e-02
-1.196000e-05,-1.540000e+00,7.026666e-02
-1.144000e-05,-1.484400e+00,7.240000e-02
