Time(s),CH1V,CH2V
-6.448000e-02,4.986933e+00,4.898133e+00
-6.435600e-02,4.986400e+00,4.915867e+00
-6.423200e-02,5.007600e+00,4.922667e+00
-6.410800e-02,4.993600e+00,4.934000e+00
-6.398400e-02,4.994534e+00,4.923200e+00
-6.386000e-02,4.995467e+00,4.931334e+00
-6.373600e-02,4.987733e+00,4.941200e+00
-6.361200e-02,4.977200e+00,4.930267e+00
-6.348800e-02,4.964933e+00,4.920000e+00
-6.336400e-02,4.960000e+00,4.914400e+00
-6.324000e-02,4.940933e+00,4.904133e+00
-6.311600e-02,4.920533e+00,4.883200e+00
-6.299200e-02,4.902400e+00,4.870133e+00
-6.286800e-02,4.884667e+00,4.856534e+00
-6.274400e-02,4.852000e+00,4.828533e+00
-6.262000e-02,4.818400e+00,4.811200e+00
-6.249600e-02,4.786667e+00,4.777867e+00
-6.237200e-02,4.762134e+00,4.754667e+00
-6.224800e-02,4.730800e+00,4.727867e+00
-6.212400e-02,4.684534e+00,4.691600e+00
-6.200000e-02,4.646000e+00,4.646000e+00
-6.187600e-02,4.611600e+00,4.617867e+00
-6.175200e-02,4.571600e+00,4.582933e+00
-6.162800e-02,4.518133e+00,4.532667e+00
-6.150400e-02,4.474000e+00,4.486400e+00
-6.138000e-02,4.414667e+00,4.435333e+00
-6.125600e-02,4.370267e+00,4.387333e+00
-6.113200e-02,4.307600e+00,4.346133e+00
-6.100800e-02,4.252133e+00,4.294933e+00
-6.088400e-02,4.194533e+00,4.239600e+00
-6.076000e-02,4.122000e+00,4.170400e+00
-6.063600e-02,4.075334e+00,4.136800e+00
-6.051200e-02,4.006267e+00,4.062267e+00
-6.038800e-02,3.951333e+00,4.006533e+00
-6.026400e-02,3.895067e+00,3.940400e+00
-6.014000e-02,3.811067e+00,3.880533e+00
-6.001600e-02,3.743467e+00,3.812533e+00
-5.989200e-02,3.665067e+00,3.741067e+00
-5.976800e-02,3.595600e+00,3.683467e+00
-5.964400e-02,3.519333e+00,3.602800e+00
-5.952000e-02,3.457200e+00,3.522667e+00
-5.939600e-02,3.382800e+00,3.462000e+00
-5.927200e-02,3.298800e+00,3.390800e+00
-5.914800e-02,3.217600e+00,3.319333e+00
-5.902400e-02,3.149067e+00,3.241867e+00
-5.890000e-02,3.062400e+00,3.176267e+00
-5.877600e-02,2.981600e+00,3.087867e+00
-5.865200e-02,2.917200e+00,3.014133e+00
-5.852800e-02,2.832933e+00,2.937600e+00
-5.840400e-02,2.745200e+00,2.859200e+00
-5.828000e-02,2.670000e+00,2.777733e+00
-5.815600e-02,2.575067e+00,2.701467e+00
-5.803200e-02,2.499333e+00,2.625067e+00
-5.790800e-02,2.419067e+00,2.551600e+00
-5.778400e-02,2.338133e+00,2.477067e+00
-5.766000e-02,2.263867e+00,2.376800e+00
-5.753600e-02,2.191733e+00,2.317067e+00
-5.741200e-02,2.095467e+00,2.234133e+00
-5.728800e-02,2.019733e+00,2.147733e+00
-5.716400e-02,1.944933e+00,2.060267e+00
-5.704000e-02,1.866800e+00,1.996400e+00
-5.691600e-02,1.797467e+00,1.920800e+00
-5.679200e-02,1.709867e+00,1.842800e+00
-5.666800e-02,1.638533e+00,1.764933e+00
-5.654400e-02,1.560133e+00,1.688800e+00
-5.642000e-02,1.481067e+00,1.624933e+00
-5.629600e-02,1.418400e+00,1.539333e+00
-5.617200e-02,1.332800e+00,1.475467e+00
-5.604800e-02,1.269333e+00,1.393067e+00
-5.592400e-02,1.198533e+00,1.319733e+00
-5.580000e-02,1.131733e+00,1.249067e+00
-5.567600e-02,1.066000e+00,1.187867e+00
-5.555200e-02,9.952000e-01,1.115067e+00
-5.542800e-02,9.284000e-01,1.057067e+00
-5.530400e-02,8.644000e-01,9.940000e-01
-5.518000e-02,8.073334e-01,9.184000e-01
-5.505600e-02,7.696000e-01,8.686666e-01
-5.493200e-02,7.025334e-01,8.116000e-01
-5.480800e-02,6.357334e-01,7.526667e-01
-5.468400e-02,5.886667e-01,6.938667e-01
-5.456000e-02,5.418667e-01,6.421334e-01
-5.443600e-02,4.882667e-01,5.878667e-01
-5.431200e-02,4.465334e-01,5.361333e-01
-5.418800e-02,4.008000e-01,4.940000e-01
-5.406400e-02,3.626667e-01,4.433333e-01
-5.394000e-02,3.194667e-01,3.908000e-01
-5.381600e-02,2.873333e-01,3.645333e-01
-5.369200e-02,2.333333e-01,3.060000e-01
-5.356800e-02,2.061333e-01,2.802667e-01
-5.344400e-02,1.670667e-01,2.390667e-01
-5.332000e-02,1.357333e-01,2.118667e-01
-5.319600e-02,1.190667e-01,1.766667e-01
-5.307200e-02,8.586667e-02,1.502667e-01
-5.294800e-02,7.813334e-02,1.285333e-01
-5.282400e-02,4.586667e-02,1.013333e-01
-5.270000e-02,4.040000e-02,8.960000e-02
-5.257600e-02,2.226667e-02,5.826667e-02
-5.245200e-02,1.693333e-02,3.480000e-02
-5.232800e-02,1.866667e-03,2.746667e-02
-5.220400e-02,-1.080000e-02,1.493333e-02
-5.208000e-02,-7.200000e-03,3.600000e-03
-5.195600e-02,-9.466667e-03,1.866667e-03
-5.183200e-02,-2.306667e-02,-1.413333e-02
-5.170800e-02,-3.066667e-03,-1.466667e-03
-5.158400e-02,-4.533333e-03,-1.680000e-02
-5.146000e-02,1.093333e-02,3.600000e-03
-5.133600e-02,1.053333e-02,5.333333e-03
-5.121200e-02,3.186667e-02,3.600000e-03
-5.108800e-02,4.280000e-02,1.720000e-02
-5.096400e-02,7.040000e-02,4.840000e-02
-5.084000e-02,8.360000e-02,6.013333e-02
-5.071600e-02,1.180000e-01,7.373334e-02
-5.059200e-02,1.366667e-01,9.786667e-02
-5.046800e-02,1.706667e-01,1.186667e-01
-5.034400e-02,1.993333e-01,1.390667e-01
-5.022000e-02,2.265333e-01,1.778667e-01
-5.009600e-02,2.782667e-01,2.050667e-01
-4.997200e-02,3.118667e-01,2.345333e-01
-4.984800e-02,3.490667e-01,2.712000e-01
-4.972400e-02,3.804000e-01,3.102667e-01
-4.960000e-02,4.261333e-01,3.386667e-01
-4.947600e-02,4.833333e-01,3.854667e-01
-4.935200e-02,5.336000e-01,4.410667e-01
-4.922800e-02,5.804000e-01,4.750667e-01
-4.910400e-02,6.316000e-01,5.302667e-01
-4.898000e-02,7.006667e-01,5.878667e-01
-4.885600e-02,7.465333e-01,6.334667e-01
-4.873200e-02,8.028000e-01,6.901333e-01
-4.860800e-02,8.553333e-01,7.458667e-01
-4.848400e-02,9.298667e-01,7.934667e-01
-4.836000e-02,9.842667e-01,8.528000e-01
-4.823600e-02,1.055200e+00,9.229333e-01
-4.811200e-02,1.120400e+00,9.941334e-01
-4.798800e-02,1.192933e+00,1.053867e+00
-4.786400e-02,1.271067e+00,1.115867e+00
-4.774000e-02,1.331333e+00,1.174400e+00
-4.761600e-02,1.399467e+00,1.244933e+00
-4.749200e-02,1.480667e+00,1.316000e+00
-4.736800e-02,1.549600e+00,1.393600e+00
-4.724400e-02,1.625867e+00,1.467733e+00
-4.712000e-02,1.696667e+00,1.543467e+00
-4.699600e-02,1.785200e+00,1.618267e+00
-4.687200e-02,1.850000e+00,1.689200e+00
-4.674800e-02,1.934400e+00,1.758133e+00
-4.662400e-02,2.013867e+00,1.836000e+00
-4.650000e-02,2.084667e+00,1.921600e+00
-4.637600e-02,2.179867e+00,2.005467e+00
-4.625200e-02,2.259733e+00,2.086533e+00
-4.612800e-02,2.343200e+00,2.154933e+00
-4.600400e-02,2.414933e+00,2.233333e+00
-4.588000e-02,2.502000e+00,2.329333e+00
-4.575600e-02,2.589067e+00,2.397600e+00
-4.563200e-02,2.654000e+00,2.474267e+00
-4.550800e-02,2.748933e+00,2.558933e+00
-4.538400e-02,2.830000e+00,2.646267e+00
-4.526000e-02,2.903600e+00,2.712000e+00
-4.513600e-02,2.976267e+00,2.788533e+00
-4.501200e-02,3.063867e+00,2.886000e+00
-4.488800e-02,3.139600e+00,2.951067e+00
-4.476400e-02,3.210400e+00,3.026800e+00
-4.464000e-02,3.284800e+00,3.119600e+00
-4.451600e-02,3.369333e+00,3.184267e+00
-4.439200e-02,3.454000e+00,3.269467e+00
-4.426800e-02,3.525733e+00,3.338800e+00
-4.414400e-02,3.587467e+00,3.408533e+00
-4.402000e-02,3.665867e+00,3.493333e+00
-4.389600e-02,3.729067e+00,3.554800e+00
-4.377200e-02,3.803333e+00,3.630533e+00
-4.364800e-02,3.870533e+00,3.705333e+00
-4.352400e-02,3.926800e+00,3.762800e+00
-4.340000e-02,3.992667e+00,3.835200e+00
-4.327600e-02,4.063867e+00,3.899067e+00
-4.315200e-02,4.131467e+00,3.958133e+00
-4.302800e-02,4.182267e+00,4.025067e+00
-4.290400e-02,4.247334e+00,4.092534e+00
-4.278000e-02,4.292133e+00,4.140934e+00
-4.265600e-02,4.357867e+00,4.207067e+00
-4.253200e-02,4.413733e+00,4.259600e+00
-4.240800e-02,4.464533e+00,4.308933e+00
-4.228400e-02,4.508667e+00,4.363867e+00
-4.216000e-02,4.559867e+00,4.417200e+00
-4.203600e-02,4.603467e+00,4.463867e+00
-4.191200e-02,4.640133e+00,4.504533e+00
-4.178800e-02,4.685200e+00,4.550800e+00
-4.166400e-02,4.722267e+00,4.595200e+00
-4.154000e-02,4.752667e+00,4.641467e+00
-4.141600e-02,4.785733e+00,4.670800e+00
-4.129200e-02,4.829733e+00,4.704400e+00
-4.116800e-02,4.853867e+00,4.735600e+00
-4.104400e-02,4.873466e+00,4.775867e+00
-4.092000e-02,4.893333e+00,4.802267e+00
-4.079600e-02,4.920533e+00,4.820800e+00
-4.067200e-02,4.932800e+00,4.845600e+00
-4.054800e-02,4.952267e+00,4.859867e+00
-4.042400e-02,4.967733e+00,4.881067e+00
-4.030000e-02,4.974934e+00,4.908667e+00
-4.017600e-02,4.985467e+00,4.893200e+00
-4.005200e-02,4.994934e+00,4.927333e+00
-3.992800e-02,4.994133e+00,4.923467e+00
-3.980400e-02,5.005467e+00,4.932267e+00
-3.968000e-02,4.990933e+00,4.942667e+00
-3.955600e-02,5.000534e+00,4.942133e+00
-3.943200e-02,4.986800e+00,4.930000e+00
-3.930800e-02,4.968133e+00,4.923600e+00
-3.918400e-02,4.965333e+00,4.917334e+00
-3.906000e-02,4.945467e+00,4.904133e+00
-3.893600e-02,4.938667e+00,4.898667e+00
-3.881200e-02,4.916000e+00,4.876934e+00
-3.868800e-02,4.889600e+00,4.858000e+00
-3.856400e-02,4.862933e+00,4.853067e+00
-3.844000e-02,4.838933e+00,4.820267e+00
-3.831600e-02,4.808400e+00,4.791333e+00
-3.819200e-02,4.772667e+00,4.764266e+00
-3.806800e-02,4.740400e+00,4.740267e+00
-3.794400e-02,4.714667e+00,4.711067e+00
-3.782000e-02,4.668667e+00,4.652800e+00
-3.769600e-02,4.634267e+00,4.637866e+00
-3.757200e-02,4.593467e+00,4.599600e+00
-3.744800e-02,4.548533e+00,4.553600e+00
-3.732400e-02,4.502667e+00,4.520133e+00
-3.720000e-02,4.444133e+00,4.460267e+00
-3.707600e-02,4.397867e+00,4.416000e+00
-3.695200e-02,4.339734e+00,4.370934e+00
-3.682800e-02,4.288000e+00,4.316534e+00
-3.670400e-02,4.226800e+00,4.277733e+00
-3.658000e-02,4.169600e+00,4.213467e+00
-3.645600e-02,4.114133e+00,4.154533e+00
-3.633200e-02,4.050800e+00,4.098400e+00
-3.620800e-02,3.978533e+00,4.032267e+00
-3.608400e-02,3.913733e+00,3.976000e+00
-3.596000e-02,3.849733e+00,3.910000e+00
-3.583600e-02,3.782000e+00,3.845333e+00
-3.571200e-02,3.703467e+00,3.775333e+00
-3.558800e-02,3.643200e+00,3.717067e+00
-3.546400e-02,3.558400e+00,3.639067e+00
-3.534000e-02,3.491200e+00,3.570267e+00
-3.521600e-02,3.410800e+00,3.501067e+00
-3.509200e-02,3.334667e+00,3.425733e+00
-3.496800e-02,3.262533e+00,3.350667e+00
-3.484400e-02,3.178133e+00,3.271733e+00
-3.472000e-02,3.101067e+00,3.208000e+00
-3.459600e-02,3.021200e+00,3.133200e+00
-3.447200e-02,2.947200e+00,3.046267e+00
-3.434800e-02,2.851467e+00,2.973333e+00
-3.422400e-02,2.791067e+00,2.896400e+00
-3.410000e-02,2.704000e+00,2.813867e+00
-3.397600e-02,2.620000e+00,2.734267e+00
-3.385200e-02,2.543467e+00,2.664400e+00
-3.372800e-02,2.464400e+00,2.567467e+00
-3.360400e-02,2.381867e+00,2.500133e+00
-3.348000e-02,2.300133e+00,2.415333e+00
-3.335600e-02,2.221600e+00,2.338933e+00
-3.323200e-02,2.145867e+00,2.274933e+00
-3.310800e-02,2.066933e+00,2.189333e+00
-3.298400e-02,1.976533e+00,2.103333e+00
-3.286000e-02,1.909867e+00,2.034933e+00
-3.273600e-02,1.824533e+00,1.962800e+00
-3.261200e-02,1.756133e+00,1.887733e+00
-3.248800e-02,1.681200e+00,1.798933e+00
-3.236400e-02,1.603200e+00,1.717467e+00
-3.224000e-02,1.533333e+00,1.647600e+00
-3.211600e-02,1.449733e+00,1.581467e+00
-3.199200e-02,1.368267e+00,1.501467e+00
-3.186800e-02,1.302267e+00,1.428933e+00
-3.174400e-02,1.244667e+00,1.367733e+00
-3.162000e-02,1.172533e+00,1.289867e+00
-3.149600e-02,1.106400e+00,1.226000e+00
-3.137200e-02,1.031867e+00,1.150800e+00
-3.124800e-02,9.634667e-01,1.091067e+00
-3.112400e-02,8.989334e-01,1.014000e+00
-3.100000e-02,8.300000e-01,9.546667e-01
-3.087600e-02,7.922667e-01,9.020000e-01
-3.075200e-02,7.246667e-01,8.392000e-01
-3.062800e-02,6.753333e-01,7.861333e-01
-3.050400e-02,6.130667e-01,7.237334e-01
-3.038000e-02,5.509334e-01,6.648000e-01
-3.025600e-02,5.052000e-01,6.190667e-01
-3.013200e-02,4.656000e-01,5.610667e-01
-3.000800e-02,4.140000e-01,5.081334e-01
-2.988400e-02,3.657333e-01,4.588000e-01
-2.976000e-02,3.285334e-01,4.180000e-01
-2.963600e-02,2.896000e-01,3.764000e-01
-2.951200e-02,2.613333e-01,3.337334e-01
-2.938800e-02,2.182667e-01,2.912000e-01
-2.926400e-02,1.925333e-01,2.513333e-01
-2.914000e-02,1.470667e-01,2.232000e-01
-2.901600e-02,1.176000e-01,1.856000e-01
-2.889200e-02,1.025333e-01,1.666667e-01
-2.876800e-02,8.493333e-02,1.281333e-01
-2.864400e-02,7.533333e-02,1.100000e-01
-2.852000e-02,3.813333e-02,8.733334e-02
-2.839600e-02,3.226667e-02,6.640000e-02
-2.827200e-02,1.053333e-02,5.240000e-02
-2.814800e-02,2.266667e-03,2.613333e-02
-2.802400e-02,-3.866667e-03,2.840000e-02
-2.790000e-02,-4.000000e-04,1.493333e-02
-2.777600e-02,-1.346667e-02,-4.133333e-03
-2.765200e-02,1.066667e-03,-3.866667e-03
-2.752800e-02,-1.133333e-02,-1.333333e-04
-2.740400e-02,-8.000000e-03,-1.640000e-02
-2.728000e-02,-4.000000e-04,-1.680000e-02
-2.715600e-02,1.186667e-02,-2.400000e-03
-2.703200e-02,2.280000e-02,5.866667e-03
-2.690800e-02,4.440000e-02,2.533333e-02
-2.678400e-02,5.720000e-02,4.253333e-02
-2.666000e-02,6.773333e-02,4.880000e-02
-2.653600e-02,1.081333e-01,8.133333e-02
-2.641200e-02,1.208000e-01,8.280000e-02
-2.628800e-02,1.502667e-01,9.906667e-02
-2.616400e-02,1.896000e-01,1.362667e-01
-2.604000e-02,2.174667e-01,1.598667e-01
-2.591600e-02,2.492000e-01,1.921333e-01
-2.579200e-02,2.914667e-01,2.254667e-01
-2.566800e-02,3.226667e-01,2.512000e-01
-2.554400e-02,3.581333e-01,2.884000e-01
-2.542000e-02,4.057333e-01,3.160000e-01
-2.529600e-02,4.601333e-01,3.685333e-01
-2.517200e-02,5.033333e-01,4.180000e-01
-2.504800e-02,5.528000e-01,4.596000e-01
-2.492400e-02,5.998667e-01,5.058666e-01
-2.480000e-02,6.530667e-01,5.561333e-01
-2.467600e-02,7.138667e-01,6.068000e-01
-2.455200e-02,7.764000e-01,6.561334e-01
-2.442800e-02,8.345333e-01,7.092000e-01
-2.430400e-02,8.980000e-01,7.684000e-01
-2.418000e-02,9.570667e-01,8.392000e-01
-2.405600e-02,1.026533e+00,8.908000e-01
-2.393200e-02,1.087200e+00,9.452000e-01
-2.380800e-02,1.154400e+00,1.018133e+00
-2.368400e-02,1.234667e+00,1.076933e+00
-2.356000e-02,1.304133e+00,1.151733e+00
-2.343600e-02,1.369067e+00,1.206667e+00
-2.331200e-02,1.451600e+00,1.282133e+00
-2.318800e-02,1.520133e+00,1.346000e+00
-2.306400e-02,1.592267e+00,1.429333e+00
-2.294000e-02,1.667200e+00,1.509467e+00
-2.281600e-02,1.734000e+00,1.582400e+00
-2.269200e-02,1.818800e+00,1.657067e+00
-2.256800e-02,1.898933e+00,1.719733e+00
-2.244400e-02,1.975733e+00,1.813467e+00
-2.232000e-02,2.055067e+00,1.890000e+00
-2.219600e-02,2.139067e+00,1.954267e+00
-2.207200e-02,2.218933e+00,2.030800e+00
-2.194800e-02,2.302400e+00,2.110000e+00
-2.182400e-02,2.380000e+00,2.200667e+00
-2.170000e-02,2.454400e+00,2.270400e+00
-2.157600e-02,2.549733e+00,2.346400e+00
-2.145200e-02,2.629600e+00,2.437067e+00
-2.132800e-02,2.700800e+00,2.511867e+00
-2.120400e-02,2.782133e+00,2.592400e+00
-2.108000e-02,2.862800e+00,2.673467e+00
-2.095600e-02,2.950800e+00,2.752800e+00
-2.083200e-02,3.014400e+00,2.831067e+00
-2.070800e-02,3.095200e+00,2.912933e+00
-2.058400e-02,3.177733e+00,2.984800e+00
-2.046000e-02,3.250800e+00,3.069733e+00
-2.033600e-02,3.331067e+00,3.141867e+00
-2.021200e-02,3.409200e+00,3.227867e+00
-2.008800e-02,3.488000e+00,3.302533e+00
-1.996400e-02,3.546667e+00,3.378800e+00
-1.984000e-02,3.618267e+00,3.443467e+00
-1.971600e-02,3.689067e+00,3.515867e+00
-1.959200e-02,3.763867e+00,3.582400e+00
-1.946800e-02,3.832800e+00,3.670800e+00
-1.934400e-02,3.906000e+00,3.724267e+00
-1.922000e-02,3.965467e+00,3.796667e+00
-1.909600e-02,4.028400e+00,3.876400e+00
-1.897200e-02,4.093867e+00,3.924000e+00
-1.884800e-02,4.161334e+00,3.996000e+00
-1.872400e-02,4.212667e+00,4.062933e+00
-1.860000e-02,4.276267e+00,4.120533e+00
-1.847600e-02,4.332933e+00,4.177200e+00
-1.835200e-02,4.386933e+00,4.232934e+00
-1.822800e-02,4.440134e+00,4.288933e+00
-1.810400e-02,4.495867e+00,4.345200e+00
-1.798000e-02,4.537067e+00,4.403600e+00
-1.785600e-02,4.572800e+00,4.433067e+00
-1.773200e-02,4.623734e+00,4.482533e+00
-1.760800e-02,4.654133e+00,4.528133e+00
-1.748400e-02,4.705467e+00,4.575733e+00
-1.736000e-02,4.748133e+00,4.618800e+00
-1.723600e-02,4.774133e+00,4.650933e+00
-1.711200e-02,4.809333e+00,4.688933e+00
-1.698800e-02,4.839734e+00,4.722000e+00
-1.686400e-02,4.855600e+00,4.755067e+00
-1.674000e-02,4.893333e+00,4.793200e+00
-1.661600e-02,4.912267e+00,4.806267e+00
-1.649200e-02,4.929600e+00,4.826667e+00
-1.636800e-02,4.949067e+00,4.860667e+00
-1.624400e-02,4.957334e+00,4.874667e+00
-1.612000e-02,4.979600e+00,4.874667e+00
-1.599600e-02,4.984133e+00,4.906800e+00
-1.587200e-02,4.989867e+00,4.915467e+00
-1.574800e-02,5.001733e+00,4.923467e+00
-1.562400e-02,4.999467e+00,4.938533e+00
-1.550000e-02,4.990933e+00,4.924533e+00
-1.537600e-02,4.991467e+00,4.932667e+00
-1.525200e-02,4.996667e+00,4.934933e+00
-1.512800e-02,4.982267e+00,4.924133e+00
-1.500400e-02,4.966933e+00,4.923200e+00
-1.488000e-02,4.956800e+00,4.910933e+00
-1.475600e-02,4.951467e+00,4.901867e+00
-1.463200e-02,4.927733e+00,4.885600e+00
-1.450800e-02,4.902800e+00,4.875467e+00
-1.438400e-02,4.876934e+00,4.848800e+00
-1.426000e-02,4.848000e+00,4.833867e+00
-1.413600e-02,4.817600e+00,4.804000e+00
-1.401200e-02,4.805733e+00,4.780000e+00
-1.388800e-02,4.770000e+00,4.756933e+00
-1.376400e-02,4.725467e+00,4.717467e+00
-1.364000e-02,4.691467e+00,4.695734e+00
-1.351600e-02,4.656400e+00,4.664933e+00
-1.339200e-02,4.611200e+00,4.624267e+00
-1.326800e-02,4.568400e+00,4.575200e+00
-1.314400e-02,4.524533e+00,4.534934e+00
-1.302000e-02,4.469067e+00,4.492000e+00
-1.289600e-02,4.416400e+00,4.447467e+00
-1.277200e-02,4.374267e+00,4.395600e+00
-1.264800e-02,4.314800e+00,4.340667e+00
-1.252400e-02,4.257200e+00,4.290400e+00
-1.240000e-02,4.201334e+00,4.251867e+00
-1.227600e-02,4.143200e+00,4.185867e+00
-1.215200e-02,4.071067e+00,4.126534e+00
-1.202800e-02,4.010400e+00,4.066667e+00
-1.190400e-02,3.948533e+00,4.006000e+00
-1.178000e-02,3.883733e+00,3.941600e+00
-1.165600e-02,3.801600e+00,3.877467e+00
-1.153200e-02,3.735867e+00,3.804800e+00
-1.140800e-02,3.675067e+00,3.740533e+00
-1.128400e-02,3.589600e+00,3.676267e+00
-1.116000e-02,3.522933e+00,3.599733e+00
-1.103600e-02,3.446667e+00,3.533067e+00
-1.091200e-02,3.373733e+00,3.459733e+00
-1.078800e-02,3.306667e+00,3.394000e+00
-1.066400e-02,3.215333e+00,3.312133e+00
-1.054000e-02,3.135067e+00,3.237333e+00
-1.041600e-02,3.070533e+00,3.168133e+00
-1.029200e-02,2.977600e+00,3.092933e+00
-1.016800e-02,2.908133e+00,3.015867e+00
-1.004400e-02,2.826000e+00,2.931200e+00
-9.920000e-03,2.751600e+00,2.859200e+00
-9.796000e-03,2.668133e+00,2.774400e+00
-9.672000e-03,2.583733e+00,2.704800e+00
-9.548000e-03,2.505733e+00,2.626400e+00
-9.424000e-03,2.424533e+00,2.547733e+00
-9.300000e-03,2.340933e+00,2.472000e+00
-9.176000e-03,2.267467e+00,2.387733e+00
-9.052000e-03,2.181733e+00,2.304800e+00
-8.928000e-03,2.103733e+00,2.218933e+00
-8.804000e-03,2.028400e+00,2.149067e+00
-8.680000e-03,1.932667e+00,2.086933e+00
-8.556000e-03,1.862667e+00,2.002133e+00
-8.432000e-03,1.786133e+00,1.914800e+00
-8.308000e-03,1.712533e+00,1.846933e+00
-8.184000e-03,1.644533e+00,1.760400e+00
-8.060000e-03,1.560533e+00,1.688400e+00
-7.936000e-03,1.492400e+00,1.616533e+00
-7.812000e-03,1.417200e+00,1.540400e+00
-7.688000e-03,1.349600e+00,1.468133e+00
-7.564000e-03,1.276933e+00,1.401333e+00
-7.440000e-03,1.197467e+00,1.328400e+00
-7.316000e-03,1.127600e+00,1.263467e+00
-7.192000e-03,1.061467e+00,1.191600e+00
-7.068000e-03,1.000133e+00,1.131733e+00
-6.944000e-03,9.370667e-01,1.049333e+00
-6.820000e-03,8.730667e-01,9.886667e-01
-6.696000e-03,8.209333e-01,9.392000e-01
-6.572000e-03,7.624000e-01,8.664000e-01
-6.448000e-03,7.033333e-01,8.142667e-01
-6.324000e-03,6.304000e-01,7.473333e-01
-6.200000e-03,5.962667e-01,6.965333e-01
-6.076000e-03,5.365334e-01,6.477333e-01
-5.952000e-03,4.974667e-01,5.869333e-01
-5.828000e-03,4.393333e-01,5.374666e-01
-5.704000e-03,3.884000e-01,4.918667e-01
-5.580000e-03,3.445333e-01,4.406667e-01
-5.456000e-03,3.049333e-01,3.930667e-01
-5.332000e-03,2.714667e-01,3.500000e-01
-5.208000e-03,2.405333e-01,3.120000e-01
-5.084000e-03,2.020000e-01,2.734667e-01
-4.960000e-03,1.765333e-01,2.413333e-01
-4.836000e-03,1.549333e-01,2.118667e-01
-4.712000e-03,1.157333e-01,1.761333e-01
-4.588000e-03,9.160000e-02,1.457333e-01
-4.464000e-03,7.186667e-02,1.172000e-01
-4.340000e-03,4.040000e-02,8.733334e-02
-4.216000e-03,3.093333e-02,8.093333e-02
-4.092000e-03,2.226667e-02,5.826667e-02
-3.968000e-03,4.133333e-03,3.973334e-02
-3.844000e-03,-3.066667e-03,2.760000e-02
-3.720000e-03,-1.173333e-02,1.266667e-02
-3.596000e-03,-7.600000e-03,6.666667e-03
-3.472000e-03,-1.440000e-02,-3.866667e-03
-3.348000e-03,-1.733333e-03,-1.226667e-02
-3.224000e-03,-1.333333e-03,-8.133333e-03
-3.100000e-03,1.093333e-02,-9.333334e-04
-2.976000e-03,7.333334e-03,-9.600000e-03
-2.852000e-03,1.133333e-02,0.000000e+00
