Time(s),CH1V,CH2V
-1.500000e-03,4.552400e+00,3.293467e+00
-1.497000e-03,4.506400e+00,3.302667e+00
-1.494000e-03,4.461600e+00,3.307333e+00
-1.491000e-03,4.405200e+00,3.309067e+00
-1.488000e-03,4.373200e+00,3.330533e+00
-1.485000e-03,4.313200e+00,3.322933e+00
-1.482000e-03,4.274267e+00,3.324667e+00
-1.479000e-03,4.207867e+00,3.319467e+00
-1.476000e-03,4.166000e+00,3.328133e+00
-1.473000e-03,4.109066e+00,3.313067e+00
-1.470000e-03,4.043867e+00,3.314267e+00
-1.467000e-03,3.990400e+00,3.310267e+00
-1.464000e-03,3.931067e+00,3.307333e+00
-1.461000e-03,3.852400e+00,3.287733e+00
-1.458000e-03,3.785600e+00,3.294667e+00
-1.455000e-03,3.716933e+00,3.280133e+00
-1.452000e-03,3.663333e+00,3.274933e+00
-1.449000e-03,3.582000e+00,3.267467e+00
-1.446000e-03,3.514400e+00,3.256533e+00
-1.443000e-03,3.441200e+00,3.251867e+00
-1.440000e-03,3.374800e+00,3.233333e+00
-1.437000e-03,3.300933e+00,3.227600e+00
-1.434000e-03,3.228267e+00,3.224133e+00
-1.431000e-03,3.153200e+00,3.211333e+00
-1.428000e-03,3.076933e+00,3.198667e+00
-1.425000e-03,3.004800e+00,3.183067e+00
-1.422000e-03,2.916400e+00,3.169733e+00
-1.419000e-03,2.846533e+00,3.146667e+00
-1.416000e-03,2.767467e+00,3.126933e+00
-1.413000e-03,2.695867e+00,3.114267e+00
-1.410000e-03,2.613867e+00,3.096933e+00
-1.407000e-03,2.534133e+00,3.076133e+00
-1.404000e-03,2.450933e+00,3.050667e+00
-1.401000e-03,2.370133e+00,3.025200e+00
-1.398000e-03,2.296267e+00,3.012533e+00
-1.395000e-03,2.215333e+00,2.999733e+00
-1.392000e-03,2.146133e+00,2.976667e+00
-1.389000e-03,2.056533e+00,2.958800e+00
-1.386000e-03,1.989067e+00,2.933867e+00
-1.383000e-03,1.904667e+00,2.911867e+00
-1.380000e-03,1.852933e+00,2.898000e+00
-1.377000e-03,1.768533e+00,2.859867e+00
-1.374000e-03,1.685333e+00,2.834400e+00
-1.371000e-03,1.617867e+00,2.814267e+00
-1.368000e-03,1.550400e+00,2.777733e+00
-1.365000e-03,1.475867e+00,2.767333e+00
-1.362000e-03,1.404933e+00,2.725733e+00
-1.359000e-03,1.326933e+00,2.706133e+00
-1.356000e-03,1.266533e+00,2.673733e+00
-1.353000e-03,1.199067e+00,2.650533e+00
-1.350000e-03,1.137333e+00,2.620533e+00
-1.347000e-03,1.068133e+00,2.592800e+00
-1.344000e-03,1.008133e+00,2.574267e+00
-1.341000e-03,9.488000e-01,2.534400e+00
-1.338000e-03,8.988000e-01,2.504933e+00
-1.335000e-03,8.436000e-01,2.486933e+00
-1.332000e-03,7.754667e-01,2.477200e+00
-1.329000e-03,7.266667e-01,2.434400e+00
-1.326000e-03,6.777334e-01,2.417067e+00
-1.323000e-03,6.376000e-01,2.388667e+00
-1.320000e-03,5.846667e-01,2.373067e+00
-1.317000e-03,5.514666e-01,2.335467e+00
-1.314000e-03,5.137333e-01,2.310667e+00
-1.311000e-03,4.736000e-01,2.290400e+00
-1.308000e-03,4.170667e-01,2.266667e+00
-1.305000e-03,3.944000e-01,2.231467e+00
-1.302000e-03,3.636000e-01,2.204267e+00
-1.299000e-03,3.368000e-01,2.186400e+00
-1.296000e-03,3.030667e-01,2.155733e+00
-1.293000e-03,2.798667e-01,2.137733e+00
-1.290000e-03,2.565333e-01,2.118667e+00
-1.287000e-03,2.390667e-01,2.092667e+00
-1.284000e-03,2.286667e-01,2.084000e+00
-1.281000e-03,2.164000e-01,2.048133e+00
-1.278000e-03,1.890667e-01,2.037733e+00
-1.275000e-03,1.878667e-01,2.018133e+00
-1.272000e-03,1.750667e-01,1.986933e+00
-1.269000e-03,1.738667e-01,1.969600e+00
-1.266000e-03,1.728000e-01,1.948800e+00
-1.263000e-03,1.646667e-01,1.940133e+00
-1.260000e-03,1.774667e-01,1.917467e+00
-1.257000e-03,1.757333e-01,1.929067e+00
-1.254000e-03,1.949333e-01,1.894400e+00
-1.251000e-03,1.942667e-01,1.870667e+00
-1.248000e-03,2.169333e-01,1.843467e+00
-1.245000e-03,2.449333e-01,1.858000e+00
-1.242000e-03,2.472000e-01,1.836533e+00
-1.239000e-03,2.786667e-01,1.814667e+00
-1.236000e-03,2.868000e-01,1.804267e+00
-1.233000e-03,3.158667e-01,1.797333e+00
-1.230000e-03,3.554667e-01,1.797333e+00
-1.227000e-03,3.862667e-01,1.788000e+00
-1.224000e-03,4.217333e-01,1.781067e+00
-1.221000e-03,4.468000e-01,1.771200e+00
-1.218000e-03,4.869334e-01,1.768400e+00
-1.215000e-03,5.322667e-01,1.766667e+00
-1.212000e-03,5.660000e-01,1.741733e+00
-1.209000e-03,6.184000e-01,1.740667e+00
-1.206000e-03,6.661333e-01,1.736000e+00
-1.203000e-03,7.173333e-01,1.745867e+00
-1.200000e-03,7.754667e-01,1.737200e+00
-1.197000e-03,8.232000e-01,1.742933e+00
-1.194000e-03,8.756000e-01,1.741733e+00
-1.191000e-03,9.342667e-01,1.744133e+00
-1.188000e-03,9.825333e-01,1.737200e+00
-1.185000e-03,1.054133e+00,1.751067e+00
-1.182000e-03,1.115200e+00,1.754533e+00
-1.179000e-03,1.178000e+00,1.760800e+00
-1.176000e-03,1.233867e+00,1.760267e+00
-1.173000e-03,1.304267e+00,1.777067e+00
-1.170000e-03,1.380533e+00,1.785733e+00
-1.167000e-03,1.436933e+00,1.790933e+00
-1.164000e-03,1.517867e+00,1.808800e+00
-1.161000e-03,1.577733e+00,1.801333e+00
-1.158000e-03,1.671467e+00,1.820400e+00
-1.155000e-03,1.726133e+00,1.843467e+00
-1.152000e-03,1.801733e+00,1.852800e+00
-1.149000e-03,1.880267e+00,1.853333e+00
-1.146000e-03,1.948267e+00,1.871333e+00
-1.143000e-03,2.029200e+00,1.889200e+00
-1.140000e-03,2.115867e+00,1.894400e+00
-1.137000e-03,2.188667e+00,1.927333e+00
-1.134000e-03,2.262533e+00,1.933733e+00
-1.131000e-03,2.345733e+00,1.955733e+00
-1.128000e-03,2.423067e+00,1.975333e+00
-1.125000e-03,2.508000e+00,1.989200e+00
-1.122000e-03,2.589467e+00,2.013467e+00
-1.119000e-03,2.659867e+00,2.021600e+00
-1.116000e-03,2.744133e+00,2.042400e+00
-1.113000e-03,2.811067e+00,2.058533e+00
-1.110000e-03,2.894267e+00,2.084000e+00
-1.107000e-03,2.964667e+00,2.111200e+00
-1.104000e-03,3.044400e+00,2.134933e+00
-1.101000e-03,3.126400e+00,2.153467e+00
-1.098000e-03,3.199200e+00,2.183467e+00
-1.095000e-03,3.280000e+00,2.194400e+00
-1.092000e-03,3.365467e+00,2.215867e+00
-1.089000e-03,3.426667e+00,2.245867e+00
-1.086000e-03,3.498133e+00,2.274800e+00
-1.083000e-03,3.574400e+00,2.305467e+00
-1.080000e-03,3.637733e+00,2.324533e+00
-1.077000e-03,3.700667e+00,2.348800e+00
-1.074000e-03,3.772800e+00,2.370800e+00
-1.071000e-03,3.843200e+00,2.386400e+00
-1.068000e-03,3.903067e+00,2.435467e+00
-1.065000e-03,3.964133e+00,2.448267e+00
-1.062000e-03,4.022933e+00,2.478267e+00
-1.059000e-03,4.075334e+00,2.494533e+00
-1.056000e-03,4.142800e+00,2.523467e+00
-1.053000e-03,4.195734e+00,2.552267e+00
-1.050000e-03,4.246267e+00,2.576533e+00
-1.047000e-03,4.304533e+00,2.603733e+00
-1.044000e-03,4.354533e+00,2.620533e+00
-1.041000e-03,4.408000e+00,2.650000e+00
-1.038000e-03,4.425467e+00,2.671467e+00
-1.035000e-03,4.486000e+00,2.699733e+00
-1.032000e-03,4.543067e+00,2.722267e+00
-1.029000e-03,4.579733e+00,2.772000e+00
-1.026000e-03,4.607067e+00,2.782400e+00
-1.023000e-03,4.642533e+00,2.796267e+00
-1.020000e-03,4.684933e+00,2.840267e+00
-1.017000e-03,4.706533e+00,2.845467e+00
-1.014000e-03,4.729200e+00,2.886533e+00
-1.011000e-03,4.761200e+00,2.903200e+00
-1.008000e-03,4.782667e+00,2.923467e+00
-1.005000e-03,4.793734e+00,2.955867e+00
-1.002000e-03,4.822267e+00,2.976667e+00
-9.990000e-04,4.843200e+00,2.992267e+00
-9.960000e-04,4.854800e+00,3.006667e+00
-9.930000e-04,4.861200e+00,3.030933e+00
-9.900000e-04,4.867600e+00,3.047200e+00
-9.870000e-04,4.876400e+00,3.070267e+00
-9.840000e-04,4.882800e+00,3.085333e+00
-9.810000e-04,4.876934e+00,3.114800e+00
-9.780000e-04,4.872267e+00,3.136267e+00
-9.750000e-04,4.863600e+00,3.132800e+00
-9.720000e-04,4.852533e+00,3.157067e+00
-9.690000e-04,4.848400e+00,3.178400e+00
-9.660000e-04,4.829200e+00,3.184800e+00
-9.630000e-04,4.822267e+00,3.206800e+00
-9.600000e-04,4.799067e+00,3.221733e+00
-9.570000e-04,4.779200e+00,3.231600e+00
-9.540000e-04,4.753600e+00,3.251867e+00
-9.510000e-04,4.735067e+00,3.244933e+00
-9.480000e-04,4.694267e+00,3.265733e+00
-9.450000e-04,4.671067e+00,3.267467e+00
-9.420000e-04,4.631467e+00,3.286533e+00
-9.390000e-04,4.601733e+00,3.286000e+00
-9.360000e-04,4.554667e+00,3.300400e+00
-9.330000e-04,4.516267e+00,3.295200e+00
-9.300000e-04,4.482533e+00,3.309600e+00
-9.270000e-04,4.427200e+00,3.306133e+00
-9.240000e-04,4.389467e+00,3.307333e+00
-9.210000e-04,4.340533e+00,3.314800e+00
-9.180000e-04,4.281200e+00,3.305067e+00
-9.150000e-04,4.228267e+00,3.316533e+00
-9.120000e-04,4.177733e+00,3.314267e+00
-9.090000e-04,4.112000e+00,3.318267e+00
-9.060000e-04,4.060133e+00,3.315467e+00
-9.030000e-04,3.998533e+00,3.302133e+00
-9.000000e-04,3.944933e+00,3.314267e+00
-8.970000e-04,3.861200e+00,3.310267e+00
-8.940000e-04,3.804133e+00,3.290000e+00
-8.910000e-04,3.745467e+00,3.293467e+00
-8.880000e-04,3.679733e+00,3.295733e+00
-8.850000e-04,3.606933e+00,3.284267e+00
-8.820000e-04,3.547067e+00,3.270400e+00
-8.790000e-04,3.464400e+00,3.260000e+00
-8.760000e-04,3.388800e+00,3.254133e+00
-8.730000e-04,3.329467e+00,3.246000e+00
-8.700000e-04,3.248000e+00,3.229867e+00
-8.670000e-04,3.177067e+00,3.221200e+00
-8.640000e-04,3.095600e+00,3.205600e+00
-8.610000e-04,3.024667e+00,3.191733e+00
-8.580000e-04,2.940800e+00,3.166267e+00
-8.550000e-04,2.866933e+00,3.150133e+00
-8.520000e-04,2.802400e+00,3.131600e+00
-8.490000e-04,2.716267e+00,3.116533e+00
-8.460000e-04,2.639467e+00,3.099200e+00
-8.430000e-04,2.556267e+00,3.090000e+00
-8.400000e-04,2.476533e+00,3.062267e+00
-8.370000e-04,2.407333e+00,3.036267e+00
-8.340000e-04,2.319467e+00,3.029867e+00
-8.310000e-04,2.241600e+00,3.003867e+00
-8.280000e-04,2.169467e+00,2.992800e+00
-8.250000e-04,2.101867e+00,2.960533e+00
-8.220000e-04,2.007733e+00,2.940800e+00
-8.190000e-04,1.933733e+00,2.911333e+00
-8.160000e-04,1.864533e+00,2.902667e+00
-8.130000e-04,1.795333e+00,2.863333e+00
-8.100000e-04,1.708667e+00,2.839067e+00
-8.070000e-04,1.633600e+00,2.808400e+00
-8.040000e-04,1.562000e+00,2.789333e+00
-8.010000e-04,1.488667e+00,2.759867e+00
-7.980000e-04,1.427067e+00,2.737333e+00
-7.950000e-04,1.349733e+00,2.707867e+00
-7.920000e-04,1.289733e+00,2.703733e+00
-7.890000e-04,1.229867e+00,2.669067e+00
-7.860000e-04,1.152533e+00,2.635600e+00
-7.830000e-04,1.088533e+00,2.613067e+00
-7.800000e-04,1.033733e+00,2.578933e+00
-7.770000e-04,9.721333e-01,2.550533e+00
-7.740000e-04,9.116000e-01,2.529200e+00
-7.710000e-04,8.628000e-01,2.517067e+00
-7.680000e-04,8.034667e-01,2.463333e+00
-7.650000e-04,7.557334e-01,2.448267e+00
-7.620000e-04,6.998667e-01,2.425067e+00
-7.590000e-04,6.469333e-01,2.404267e+00
-7.560000e-04,6.033334e-01,2.361467e+00
-7.530000e-04,5.544000e-01,2.347067e+00
-7.500000e-04,5.078667e-01,2.318800e+00
-7.470000e-04,4.886667e-01,2.304267e+00
-7.440000e-04,4.426667e-01,2.262133e+00
-7.410000e-04,3.944000e-01,2.232667e+00
-7.380000e-04,3.833333e-01,2.227467e+00
-7.350000e-04,3.508000e-01,2.203067e+00
-7.320000e-04,3.054667e-01,2.169600e+00
-7.290000e-04,2.914667e-01,2.159200e+00
-7.260000e-04,2.740000e-01,2.136000e+00
-7.230000e-04,2.402667e-01,2.093333e+00
-7.200000e-04,2.240000e-01,2.088667e+00
-7.170000e-04,2.176000e-01,2.067867e+00
-7.140000e-04,1.972000e-01,2.038933e+00
-7.110000e-04,1.838667e-01,2.019333e+00
-7.080000e-04,1.774667e-01,2.007733e+00
-7.050000e-04,1.802667e-01,1.970667e+00
-7.020000e-04,1.774667e-01,1.966133e+00
-6.990000e-04,1.629333e-01,1.953333e+00
-6.960000e-04,1.657333e-01,1.924533e+00
-6.930000e-04,1.873333e-01,1.911733e+00
-6.900000e-04,1.972000e-01,1.894400e+00
-6.870000e-04,1.994667e-01,1.869600e+00
-6.840000e-04,2.006667e-01,1.859733e+00
-6.810000e-04,2.210667e-01,1.850533e+00
-6.780000e-04,2.506667e-01,1.842400e+00
-6.750000e-04,2.560000e-01,1.819867e+00
-6.720000e-04,2.984000e-01,1.813467e+00
-6.690000e-04,3.153333e-01,1.802533e+00
-6.660000e-04,3.438667e-01,1.786933e+00
-6.630000e-04,3.793333e-01,1.790933e+00
-6.600000e-04,4.078667e-01,1.778800e+00
-6.570000e-04,4.433333e-01,1.763200e+00
-6.540000e-04,4.788000e-01,1.761467e+00
-6.510000e-04,5.194667e-01,1.763200e+00
-6.480000e-04,5.613334e-01,1.764933e+00
-6.450000e-04,6.068000e-01,1.764267e+00
-6.420000e-04,6.509333e-01,1.736000e+00
-6.390000e-04,7.068000e-01,1.745867e+00
-6.360000e-04,7.592000e-01,1.758000e+00
-6.330000e-04,7.964000e-01,1.742933e+00
-6.300000e-04,8.569334e-01,1.733733e+00
-6.270000e-04,9.057333e-01,1.749867e+00
-6.240000e-04,9.849333e-01,1.753333e+00
-6.210000e-04,1.031467e+00,1.746400e+00
-6.180000e-04,1.097733e+00,1.755600e+00
-6.150000e-04,1.155333e+00,1.771200e+00
-6.120000e-04,1.215333e+00,1.753333e+00
-6.090000e-04,1.292133e+00,1.773600e+00
-6.060000e-04,1.361867e+00,1.778800e+00
-6.030000e-04,1.427067e+00,1.777600e+00
-6.000000e-04,1.494533e+00,1.792667e+00
-5.970000e-04,1.559733e+00,1.808800e+00
-5.940000e-04,1.642267e+00,1.812267e+00
-5.910000e-04,1.711600e+00,1.817467e+00
-5.880000e-04,1.790133e+00,1.841200e+00
-5.850000e-04,1.858800e+00,1.855733e+00
-5.820000e-04,1.936667e+00,1.864400e+00
-5.790000e-04,2.015200e+00,1.889200e+00
-5.760000e-04,2.090267e+00,1.912933e+00
-5.730000e-04,2.169467e+00,1.906000e+00
-5.700000e-04,2.240400e+00,1.926800e+00
-5.670000e-04,2.323600e+00,1.948133e+00
-5.640000e-04,2.397467e+00,1.956800e+00
-5.610000e-04,2.471333e+00,1.982267e+00
-5.580000e-04,2.560400e+00,1.998533e+00
-5.550000e-04,2.629067e+00,2.015200e+00
-5.520000e-04,2.716267e+00,2.035467e+00
-5.490000e-04,2.788933e+00,2.060267e+00
-5.460000e-04,2.864000e+00,2.076000e+00
-5.430000e-04,2.944933e+00,2.095067e+00
-5.400000e-04,3.032800e+00,2.118667e+00
-5.370000e-04,3.094933e+00,2.151067e+00
-5.340000e-04,3.170000e+00,2.156933e+00
-5.310000e-04,3.246800e+00,2.195067e+00
-5.280000e-04,3.328267e+00,2.211200e+00
-5.250000e-04,3.405067e+00,2.236667e+00
-5.220000e-04,3.469067e+00,2.265600e+00
-5.190000e-04,3.538267e+00,2.290933e+00
-5.160000e-04,3.612133e+00,2.317600e+00
-5.130000e-04,3.680800e+00,2.337200e+00
-5.100000e-04,3.727333e+00,2.360400e+00
-5.070000e-04,3.811200e+00,2.383467e+00
-5.040000e-04,3.872800e+00,2.428533e+00
-5.010000e-04,3.941467e+00,2.437200e+00
-4.980000e-04,4.005467e+00,2.452933e+00
-4.950000e-04,4.063066e+00,2.485200e+00
-4.920000e-04,4.119467e+00,2.518800e+00
-4.890000e-04,4.177733e+00,2.540133e+00
-4.860000e-04,4.231200e+00,2.561600e+00
-4.830000e-04,4.282933e+00,2.582933e+00
-4.800000e-04,4.338267e+00,2.622800e+00
-4.770000e-04,4.378400e+00,2.645333e+00
-4.740000e-04,4.427867e+00,2.671467e+00
-4.710000e-04,4.479067e+00,2.708400e+00
-4.680000e-04,4.517467e+00,2.717600e+00
-4.650000e-04,4.566933e+00,2.748933e+00
-4.620000e-04,4.596533e+00,2.763867e+00
-4.590000e-04,4.633200e+00,2.795733e+00
-4.560000e-04,4.675734e+00,2.844800e+00
-4.530000e-04,4.697200e+00,2.844800e+00
-4.500000e-04,4.717600e+00,2.871467e+00
-4.470000e-04,4.757067e+00,2.888267e+00
-4.440000e-04,4.775733e+00,2.932667e+00
-4.410000e-04,4.797867e+00,2.944800e+00
-4.380000e-04,4.816400e+00,2.953467e+00
-4.350000e-04,4.832133e+00,2.977867e+00
-4.320000e-04,4.843200e+00,3.004400e+00
-4.290000e-04,4.863067e+00,3.030400e+00
-4.260000e-04,4.865334e+00,3.041467e+00
-4.230000e-04,4.868800e+00,3.066800e+00
-4.200000e-04,4.871200e+00,3.085333e+00
-4.170000e-04,4.882800e+00,3.109600e+00
-4.140000e-04,4.866533e+00,3.122400e+00
-4.110000e-04,4.864800e+00,3.136800e+00
-4.080000e-04,4.864133e+00,3.154667e+00
-4.050000e-04,4.858933e+00,3.160533e+00
-4.020000e-04,4.826933e+00,3.178933e+00
-3.990000e-04,4.826400e+00,3.193467e+00
-3.960000e-04,4.810667e+00,3.214800e+00
-3.930000e-04,4.788000e+00,3.226400e+00
-3.900000e-04,4.762933e+00,3.231067e+00
-3.870000e-04,4.739600e+00,3.252400e+00
-3.840000e-04,4.705867e+00,3.247200e+00
-3.810000e-04,4.677467e+00,3.268667e+00
-3.780000e-04,4.644267e+00,3.278400e+00
-3.750000e-04,4.601200e+00,3.283067e+00
-3.720000e-04,4.575600e+00,3.293467e+00
-3.690000e-04,4.534934e+00,3.305600e+00
-3.660000e-04,4.495333e+00,3.310800e+00
-3.630000e-04,4.451734e+00,3.309067e+00
-3.600000e-04,4.405734e+00,3.316533e+00
-3.570000e-04,4.356800e+00,3.317733e+00
-3.540000e-04,4.305600e+00,3.322400e+00
-3.510000e-04,4.255600e+00,3.315467e+00
-3.480000e-04,4.194000e+00,3.321200e+00
-3.450000e-04,4.141600e+00,3.316000e+00
-3.420000e-04,4.088133e+00,3.321200e+00
-3.390000e-04,4.024667e+00,3.317200e+00
-3.360000e-04,3.963600e+00,3.321200e+00
-3.330000e-04,3.894400e+00,3.306133e+00
-3.300000e-04,3.836800e+00,3.302667e+00
-3.270000e-04,3.770400e+00,3.288800e+00
-3.240000e-04,3.700667e+00,3.281867e+00
-3.210000e-04,3.639600e+00,3.274933e+00
-3.180000e-04,3.565600e+00,3.263467e+00
-3.150000e-04,3.493467e+00,3.265200e+00
-3.120000e-04,3.419067e+00,3.242533e+00
-3.090000e-04,3.355067e+00,3.242533e+00
-3.060000e-04,3.271333e+00,3.221733e+00
-3.030000e-04,3.195067e+00,3.219467e+00
-3.000000e-04,3.128133e+00,3.210267e+00
-2.970000e-04,3.057200e+00,3.184800e+00
-2.940000e-04,2.967600e+00,3.181333e+00
-2.910000e-04,2.897200e+00,3.098000e+00
-2.880000e-04,2.820933e+00,3.143200e+00
-2.850000e-04,2.740133e+00,3.125867e+00
-2.820000e-04,2.663867e+00,3.109600e+00
-2.790000e-04,2.580667e+00,3.087067e+00
-2.760000e-04,2.504533e+00,3.062267e+00
-2.730000e-04,2.419600e+00,3.050667e+00
-2.700000e-04,2.345067e+00,3.020533e+00
-2.670000e-04,2.270000e+00,3.009067e+00
-2.640000e-04,2.181067e+00,2.976667e+00
-2.610000e-04,2.116400e+00,2.958133e+00
-2.580000e-04,2.039067e+00,2.938533e+00
-2.550000e-04,1.954133e+00,2.923467e+00
-2.520000e-04,1.883200e+00,2.902667e+00
-2.490000e-04,1.811600e+00,2.877733e+00
-2.460000e-04,1.734267e+00,2.850667e+00
-2.430000e-04,1.669600e+00,2.827467e+00
-2.400000e-04,1.601600e+00,2.814800e+00
-2.370000e-04,1.515467e+00,2.782400e+00
-2.340000e-04,1.451467e+00,2.747733e+00
-2.310000e-04,1.375867e+00,2.723467e+00
-2.280000e-04,1.308400e+00,2.708400e+00
-2.250000e-04,1.246667e+00,2.661600e+00
-2.220000e-04,1.180400e+00,2.639067e+00
-2.190000e-04,1.120533e+00,2.615333e+00
-2.160000e-04,1.040800e+00,2.592800e+00
-2.130000e-04,9.773334e-01,2.560933e+00
-2.100000e-04,9.384000e-01,2.530400e+00
-2.070000e-04,8.872000e-01,2.514800e+00
-2.040000e-04,8.220000e-01,2.474800e+00
-2.010000e-04,7.644000e-01,2.452267e+00
-1.980000e-04,7.173333e-01,2.424000e+00
-1.950000e-04,6.568000e-01,2.402533e+00
-1.920000e-04,6.172000e-01,2.375467e+00
-1.890000e-04,5.672000e-01,2.345333e+00
-1.860000e-04,5.312000e-01,2.319867e+00
-1.830000e-04,4.864000e-01,2.311867e+00
-1.800000e-04,4.497333e-01,2.285200e+00
-1.770000e-04,4.042667e-01,2.243067e+00
-1.740000e-04,3.845333e-01,2.225067e+00
-1.710000e-04,3.466667e-01,2.205467e+00
-1.680000e-04,3.193333e-01,2.171867e+00
-1.650000e-04,2.920000e-01,2.148800e+00
-1.620000e-04,2.740000e-01,2.128000e+00
-1.590000e-04,2.624000e-01,2.121600e+00
-1.560000e-04,2.472000e-01,2.086400e+00
-1.530000e-04,2.146667e-01,2.071333e+00
-1.500000e-04,2.030667e-01,2.050533e+00
-1.470000e-04,2.030667e-01,2.019867e+00
-1.440000e-04,1.937333e-01,2.010000e+00
-1.410000e-04,1.838667e-01,1.994400e+00
-1.380000e-04,1.785333e-01,1.964933e+00
-1.350000e-04,1.664000e-01,1.955067e+00
-1.320000e-04,1.728000e-01,1.926800e+00
-1.290000e-04,1.757333e-01,1.884533e+00
-1.260000e-04,1.774667e-01,1.901333e+00
-1.230000e-04,1.866667e-01,1.886267e+00
-1.200000e-04,2.030667e-01,1.859733e+00
-1.170000e-04,2.176000e-01,1.844133e+00
-1.140000e-04,2.344000e-01,1.841200e+00
-1.110000e-04,2.425333e-01,1.829600e+00
-1.080000e-04,2.844000e-01,1.808800e+00
-1.050000e-04,2.966667e-01,1.801867e+00
-1.020000e-04,3.310667e-01,1.793867e+00
-9.900000e-05,3.577333e-01,1.799067e+00
-9.600000e-05,3.822667e-01,1.783467e+00
-9.300000e-05,4.234667e-01,1.772933e+00
-9.000000e-05,4.636000e-01,1.770667e+00
-8.700000e-05,4.985333e-01,1.765467e+00
-8.400000e-05,5.450667e-01,1.753333e+00
-8.100000e-05,5.834666e-01,1.750400e+00
-7.800000e-05,6.393334e-01,1.752133e+00
-7.500000e-05,6.858667e-01,1.750400e+00
-7.200000e-05,7.312000e-01,1.732533e+00
-6.900000e-05,7.842667e-01,1.734267e+00
-6.600000e-05,8.382667e-01,1.744133e+00
-6.300000e-05,9.086667e-01,1.740000e+00
-6.000000e-05,9.430667e-01,1.744133e+00
-5.700000e-05,9.994667e-01,1.756800e+00
-5.400000e-05,1.073333e+00,1.756800e+00
-5.100000e-05,1.139733e+00,1.766667e+00
-4.800000e-05,1.203600e+00,1.774133e+00
-4.500000e-05,1.268800e+00,1.769467e+00
-4.200000e-05,1.337467e+00,1.777600e+00
-3.900000e-05,1.401467e+00,1.781067e+00
-3.600000e-05,1.475867e+00,1.801867e+00
-3.300000e-05,1.539867e+00,1.800133e+00
-3.000000e-05,1.613200e+00,1.811200e+00
-2.700000e-05,1.683067e+00,1.829067e+00
-2.400000e-05,1.750533e+00,1.820400e+00
-2.100000e-05,1.818533e+00,1.852800e+00
-1.800000e-05,1.911067e+00,1.862000e+00
-1.500000e-05,1.992000e+00,1.875333e+00
-1.200000e-05,2.062400e+00,1.887467e+00
-9.000000e-06,2.144933e+00,1.896133e+00
-6.000000e-06,2.224133e+00,1.923333e+00
