Time(s),CH1V,CH2V
-4.650000e-05,4.496533e+00,3.885467e+00
-4.640700e-05,4.432267e+00,3.800400e+00
-4.631400e-05,4.387067e+00,3.744400e+00
-4.622100e-05,4.324667e+00,3.680000e+00
-4.612800e-05,4.271333e+00,3.601600e+00
-4.603500e-05,4.209067e+00,3.531067e+00
-4.594200e-05,4.140133e+00,3.463733e+00
-4.584900e-05,4.074800e+00,3.397867e+00
-4.575600e-05,4.022933e+00,3.324667e+00
-4.566300e-05,3.945867e+00,3.241333e+00
-4.557000e-05,3.881867e+00,3.176933e+00
-4.547700e-05,3.806267e+00,3.096933e+00
-4.538400e-05,3.740800e+00,3.024000e+00
-4.529100e-05,3.660133e+00,2.952933e+00
-4.519800e-05,3.592933e+00,2.872000e+00
-4.510500e-05,3.510800e+00,2.796000e+00
-4.501200e-05,3.426000e+00,2.715333e+00
-4.491900e-05,3.355600e+00,2.648667e+00
-4.482600e-05,3.282933e+00,2.550533e+00
-4.473300e-05,3.204533e+00,2.495467e+00
-4.464000e-05,3.109600e+00,2.428000e+00
-4.454700e-05,3.054400e+00,2.354133e+00
-4.445400e-05,2.965867e+00,2.260133e+00
-4.436100e-05,2.867200e+00,2.194267e+00
-4.426800e-05,2.791867e+00,2.108267e+00
-4.417500e-05,2.724667e+00,2.020667e+00
-4.408200e-05,2.640400e+00,1.953600e+00
-4.398900e-05,2.561600e+00,1.886400e+00
-4.389600e-05,2.463200e+00,1.809467e+00
-4.380300e-05,2.391867e+00,1.738267e+00
-4.371000e-05,2.313067e+00,1.659733e+00
-4.361700e-05,2.228800e+00,1.598267e+00
-4.352400e-05,2.146133e+00,1.538267e+00
-4.343100e-05,2.062267e+00,1.466133e+00
-4.333800e-05,1.989333e+00,1.395467e+00
-4.324500e-05,1.900933e+00,1.331467e+00
-4.315200e-05,1.826800e+00,1.263067e+00
-4.305900e-05,1.752267e+00,1.184667e+00
-4.296600e-05,1.660933e+00,1.127200e+00
-4.287300e-05,1.585867e+00,1.070667e+00
-4.278000e-05,1.513200e+00,1.001733e+00
-4.268700e-05,1.431200e+00,9.465333e-01
-4.259400e-05,1.370000e+00,8.829333e-01
-4.250100e-05,1.292533e+00,8.426667e-01
-4.240800e-05,1.227467e+00,7.700000e-01
-4.231500e-05,1.158267e+00,7.281333e-01
-4.222200e-05,1.087600e+00,6.797333e-01
-4.212900e-05,1.019467e+00,6.316000e-01
-4.203600e-05,9.360000e-01,5.878667e-01
-4.194300e-05,8.748000e-01,5.468000e-01
-4.185000e-05,8.345333e-01,5.037333e-01
-4.175700e-05,7.670667e-01,4.612000e-01
-4.166400e-05,7.068000e-01,4.364000e-01
-4.157100e-05,6.501333e-01,3.885333e-01
-4.147800e-05,6.044000e-01,3.745333e-01
-4.138500e-05,5.526667e-01,3.341333e-01
-4.129200e-05,4.997333e-01,3.126667e-01
-4.119900e-05,4.458667e-01,2.801333e-01
-4.110600e-05,4.124000e-01,2.644000e-01
-4.101300e-05,3.618667e-01,2.354667e-01
-4.092000e-05,3.193333e-01,2.294667e-01
-4.082700e-05,2.858667e-01,2.164000e-01
-4.073400e-05,2.545334e-01,2.109333e-01
-4.064100e-05,2.256000e-01,2.050667e-01
-4.054800e-05,1.890667e-01,1.946667e-01
-4.045500e-05,1.652000e-01,1.934667e-01
-4.036200e-05,1.462667e-01,1.849333e-01
-4.026900e-05,1.100000e-01,1.930667e-01
-4.017600e-05,8.840000e-02,1.906667e-01
-4.008300e-05,7.986667e-02,1.906667e-01
-3.999000e-05,5.666667e-02,2.074667e-01
-3.989700e-05,5.146667e-02,2.176000e-01
-3.980400e-05,4.013333e-02,2.248000e-01
-3.971100e-05,3.653333e-02,2.425333e-01
-3.961800e-05,3.493333e-02,2.676000e-01
-3.952500e-05,3.746667e-02,3.001333e-01
-3.943200e-05,2.213333e-02,3.062667e-01
-3.933900e-05,3.840000e-02,3.466667e-01
-3.924600e-05,4.680000e-02,3.664000e-01
-3.915300e-05,6.053333e-02,3.998667e-01
-3.906000e-05,6.573334e-02,4.398667e-01
-3.896700e-05,8.666667e-02,4.526667e-01
-3.887400e-05,1.073333e-01,5.109333e-01
-3.878100e-05,1.216000e-01,5.462667e-01
-3.868800e-05,1.512000e-01,5.994667e-01
-3.859500e-05,1.681333e-01,6.249334e-01
-3.850200e-05,2.001333e-01,6.821333e-01
-3.840900e-05,2.369333e-01,7.302667e-01
-3.831600e-05,2.506667e-01,7.717333e-01
-3.822300e-05,2.965333e-01,8.285334e-01
-3.813000e-05,3.269333e-01,8.804000e-01
-3.803700e-05,3.816000e-01,9.258667e-01
-3.794400e-05,4.241333e-01,9.850667e-01
-3.785100e-05,4.676000e-01,1.047867e+00
-3.775800e-05,5.221334e-01,1.106933e+00
-3.766500e-05,5.688000e-01,1.176267e+00
-3.757200e-05,6.102667e-01,1.240000e+00
-3.747900e-05,6.717333e-01,1.312400e+00
-3.738600e-05,7.318667e-01,1.373467e+00
-3.729300e-05,7.788000e-01,1.446267e+00
-3.720000e-05,8.470667e-01,1.511067e+00
-3.710700e-05,9.153333e-01,1.582800e+00
-3.701400e-05,9.800000e-01,1.648667e+00
-3.692100e-05,1.042933e+00,1.720133e+00
-3.682800e-05,1.108267e+00,1.799600e+00
-3.673500e-05,1.178667e+00,1.871333e+00
-3.664200e-05,1.240000e+00,1.944133e+00
-3.654900e-05,1.312400e+00,2.033200e+00
-3.645600e-05,1.396267e+00,2.099067e+00
-3.636300e-05,1.466133e+00,2.179467e+00
-3.627000e-05,1.539333e+00,2.253733e+00
-3.617700e-05,1.624800e+00,2.330267e+00
-3.608400e-05,1.697067e+00,2.396267e+00
-3.599100e-05,1.765733e+00,2.471467e+00
-3.589800e-05,1.853467e+00,2.558667e+00
-3.580500e-05,1.933200e+00,2.637467e+00
-3.571200e-05,2.016400e+00,2.710667e+00
-3.561900e-05,2.080667e+00,2.805333e+00
-3.552600e-05,2.180133e+00,2.872267e+00
-3.543300e-05,2.259200e+00,2.946133e+00
-3.534000e-05,2.345067e+00,3.017067e+00
-3.524700e-05,2.419333e+00,3.090667e+00
-3.515400e-05,2.505333e+00,3.172667e+00
-3.506100e-05,2.588667e+00,3.250933e+00
-3.496800e-05,2.665067e+00,3.317733e+00
-3.487500e-05,2.750133e+00,3.397333e+00
-3.478200e-05,2.833200e+00,3.466667e+00
-3.468900e-05,2.917067e+00,3.534800e+00
-3.459600e-05,2.995467e+00,3.603333e+00
-3.450300e-05,3.077600e+00,3.669867e+00
-3.441000e-05,3.153200e+00,3.727333e+00
-3.431700e-05,3.240000e+00,3.801600e+00
-3.422400e-05,3.317867e+00,3.870400e+00
-3.413100e-05,3.401200e+00,3.930133e+00
-3.403800e-05,3.464133e+00,3.981467e+00
-3.394500e-05,3.541333e+00,4.050933e+00
-3.385200e-05,3.619200e+00,4.100533e+00
-3.375900e-05,3.698000e+00,4.167600e+00
-3.366600e-05,3.768400e+00,4.212133e+00
-3.357300e-05,3.837200e+00,4.276400e+00
-3.348000e-05,3.916400e+00,4.327734e+00
-3.338700e-05,3.972667e+00,4.381067e+00
-3.329400e-05,4.031333e+00,4.416133e+00
-3.320100e-05,4.095067e+00,4.458000e+00
-3.310800e-05,4.161334e+00,4.502934e+00
-3.301500e-05,4.223200e+00,4.537200e+00
-3.292200e-05,4.289600e+00,4.581867e+00
-3.282900e-05,4.345867e+00,4.610933e+00
-3.273600e-05,4.406267e+00,4.663067e+00
-3.264300e-05,4.457733e+00,4.686000e+00
-3.255000e-05,4.514000e+00,4.717733e+00
-3.245700e-05,4.557467e+00,4.740400e+00
-3.236400e-05,4.611733e+00,4.763067e+00
-3.227100e-05,4.655867e+00,4.776267e+00
-3.217800e-05,4.700400e+00,4.797200e+00
-3.208500e-05,4.738000e+00,4.815467e+00
-3.199200e-05,4.779200e+00,4.828933e+00
-3.189900e-05,4.804267e+00,4.849600e+00
-3.180600e-05,4.842667e+00,4.849200e+00
-3.171300e-05,4.871600e+00,4.865734e+00
-3.162000e-05,4.889733e+00,4.861333e+00
-3.152700e-05,4.926133e+00,4.865200e+00
-3.143400e-05,4.943867e+00,4.863067e+00
-3.134100e-05,4.964267e+00,4.858133e+00
-3.124800e-05,4.985734e+00,4.851467e+00
-3.115500e-05,4.997200e+00,4.840800e+00
-3.106200e-05,5.004667e+00,4.827200e+00
-3.096900e-05,5.015467e+00,4.807467e+00
-3.087600e-05,5.020133e+00,4.795467e+00
-3.078300e-05,5.020933e+00,4.784534e+00
-3.069000e-05,5.025867e+00,4.744000e+00
-3.059700e-05,5.019733e+00,4.740667e+00
-3.050400e-05,5.009600e+00,4.713334e+00
-3.041100e-05,5.013867e+00,4.678133e+00
-3.031800e-05,5.000933e+00,4.639867e+00
-3.022500e-05,4.981867e+00,4.611200e+00
-3.013200e-05,4.971200e+00,4.576933e+00
-3.003900e-05,4.953200e+00,4.536000e+00
-2.994600e-05,4.933733e+00,4.506134e+00
-2.985300e-05,4.898667e+00,4.453866e+00
-2.976000e-05,4.886800e+00,4.409867e+00
-2.966700e-05,4.848000e+00,4.371067e+00
-2.957400e-05,4.825200e+00,4.325467e+00
-2.948100e-05,4.782400e+00,4.257067e+00
-2.938800e-05,4.744267e+00,4.213867e+00
-2.929500e-05,4.709867e+00,4.162133e+00
-2.920200e-05,4.672800e+00,4.096800e+00
-2.910900e-05,4.619733e+00,4.037067e+00
-2.901600e-05,4.572134e+00,3.986667e+00
-2.892300e-05,4.535467e+00,3.914533e+00
-2.883000e-05,4.485200e+00,3.852800e+00
-2.873700e-05,4.433467e+00,3.796933e+00
-2.864400e-05,4.377867e+00,3.749067e+00
-2.855100e-05,4.317200e+00,3.669333e+00
-2.845800e-05,4.253334e+00,3.589733e+00
-2.836500e-05,4.198934e+00,3.529867e+00
-2.827200e-05,4.137467e+00,3.448933e+00
-2.817900e-05,4.060934e+00,3.380800e+00
-2.808600e-05,4.001067e+00,3.305867e+00
-2.799300e-05,3.932933e+00,3.239600e+00
-2.790000e-05,3.869333e+00,3.160533e+00
-2.780700e-05,3.783467e+00,3.090400e+00
-2.771400e-05,3.724133e+00,3.010133e+00
-2.762100e-05,3.656133e+00,2.938000e+00
-2.752800e-05,3.569200e+00,2.872000e+00
-2.743500e-05,3.501467e+00,2.780133e+00
-2.734200e-05,3.426267e+00,2.701733e+00
-2.724900e-05,3.338667e+00,2.631867e+00
-2.715600e-05,3.265467e+00,2.590533e+00
-2.706300e-05,3.184400e+00,2.474533e+00
-2.697000e-05,3.109200e+00,2.399067e+00
-2.687700e-05,3.028533e+00,2.320800e+00
-2.678400e-05,2.944267e+00,2.251067e+00
-2.669100e-05,2.862400e+00,2.171067e+00
-2.659800e-05,2.776800e+00,2.092133e+00
-2.650500e-05,2.699867e+00,2.012000e+00
-2.641200e-05,2.630133e+00,1.942933e+00
-2.631900e-05,2.533600e+00,1.862933e+00
-2.622600e-05,2.451333e+00,1.785467e+00
-2.613300e-05,2.363733e+00,1.713600e+00
-2.604000e-05,2.284533e+00,1.651067e+00
-2.594700e-05,2.210133e+00,1.575600e+00
-2.585400e-05,2.127200e+00,1.505600e+00
-2.576100e-05,2.040400e+00,1.438267e+00
-2.566800e-05,1.973867e+00,1.378667e+00
-2.557500e-05,1.891467e+00,1.313067e+00
-2.548200e-05,1.809600e+00,1.245467e+00
-2.538900e-05,1.719733e+00,1.173600e+00
-2.529600e-05,1.649867e+00,1.116800e+00
-2.520300e-05,1.573200e+00,1.054400e+00
-2.511000e-05,1.490533e+00,9.928000e-01
-2.501700e-05,1.423200e+00,9.376000e-01
-2.492400e-05,1.350267e+00,8.710667e-01
-2.483100e-05,1.283333e+00,8.246667e-01
-2.473800e-05,1.207200e+00,7.856000e-01
-2.464500e-05,1.143333e+00,7.258667e-01
-2.455200e-05,1.073333e+00,6.705334e-01
-2.445900e-05,1.004000e+00,6.222667e-01
-2.436600e-05,9.430667e-01,5.837333e-01
-2.427300e-05,8.745334e-01,5.385333e-01
-2.418000e-05,8.126667e-01,4.930667e-01
-2.408700e-05,7.472000e-01,4.652000e-01
-2.399400e-05,6.984000e-01,4.280000e-01
-2.390100e-05,6.524000e-01,3.954667e-01
-2.380800e-05,5.922667e-01,3.629333e-01
-2.371500e-05,5.445333e-01,3.480000e-01
-2.362200e-05,4.909333e-01,3.176000e-01
-2.352900e-05,4.404000e-01,2.858667e-01
-2.343600e-05,4.032000e-01,2.617333e-01
-2.334300e-05,3.552000e-01,2.532000e-01
-2.325000e-05,3.057333e-01,2.282667e-01
-2.315700e-05,2.822667e-01,2.140000e-01
-2.306400e-05,2.420000e-01,2.085333e-01
-2.297100e-05,2.209333e-01,1.992000e-01
-2.287800e-05,1.902667e-01,1.938667e-01
-2.278500e-05,1.486667e-01,1.874667e-01
-2.269200e-05,1.309333e-01,2.016000e-01
-2.259900e-05,1.006667e-01,2.070667e-01
-2.250600e-05,9.106667e-02,1.924000e-01
-2.241300e-05,7.373334e-02,2.002667e-01
-2.232000e-05,5.693333e-02,2.178667e-01
-2.222700e-05,4.346667e-02,2.186667e-01
-2.213400e-05,3.253333e-02,2.334667e-01
-2.204100e-05,3.333334e-02,2.525333e-01
-2.194800e-05,3.080000e-02,2.698667e-01
-2.185500e-05,3.013333e-02,2.982667e-01
-2.176200e-05,3.026667e-02,3.228000e-01
-2.166900e-05,3.746667e-02,3.441333e-01
-2.157600e-05,4.600000e-02,3.698667e-01
-2.148300e-05,6.200000e-02,3.994667e-01
-2.139000e-05,7.266667e-02,4.500000e-01
-2.129700e-05,8.573333e-02,4.662667e-01
-2.120400e-05,9.826667e-02,5.069333e-01
-2.111100e-05,1.336000e-01,5.593333e-01
-2.101800e-05,1.442667e-01,5.953333e-01
-2.092500e-05,1.786667e-01,6.452000e-01
-2.083200e-05,2.105333e-01,6.890666e-01
-2.073900e-05,2.338667e-01,7.465333e-01
-2.064600e-05,2.853333e-01,7.908000e-01
-2.055300e-05,3.000000e-01,8.457333e-01
-2.046000e-05,3.426667e-01,9.024000e-01
-2.036700e-05,3.873333e-01,9.580000e-01
-2.027400e-05,4.293333e-01,1.006133e+00
-2.018100e-05,4.752000e-01,1.070800e+00
-2.008800e-05,5.305333e-01,1.132400e+00
-1.999500e-05,5.765333e-01,1.192667e+00
-1.990200e-05,6.268000e-01,1.263733e+00
-1.980900e-05,6.922667e-01,1.324267e+00
-1.971600e-05,7.498667e-01,1.390267e+00
-1.962300e-05,8.041334e-01,1.462667e+00
-1.953000e-05,8.606667e-01,1.529867e+00
-1.943700e-05,9.253333e-01,1.597067e+00
-1.934400e-05,9.884000e-01,1.666667e+00
-1.925100e-05,1.057733e+00,1.742133e+00
-1.915800e-05,1.118133e+00,1.814400e+00
-1.906500e-05,1.196400e+00,1.897600e+00
-1.897200e-05,1.265333e+00,1.967200e+00
-1.887900e-05,1.332000e+00,2.050933e+00
-1.878600e-05,1.409600e+00,2.119867e+00
-1.869300e-05,1.481600e+00,2.187200e+00
-1.860000e-05,1.552667e+00,2.276533e+00
-1.850700e-05,1.633467e+00,2.344000e+00
-1.841400e-05,1.718533e+00,2.422533e+00
-1.832100e-05,1.795067e+00,2.496533e+00
-1.822800e-05,1.857600e+00,2.588133e+00
-1.813500e-05,1.948800e+00,2.660000e+00
-1.804200e-05,2.035600e+00,2.728400e+00
-1.794900e-05,2.104933e+00,2.808800e+00
-1.785600e-05,2.196133e+00,2.886533e+00
-1.776300e-05,2.267867e+00,2.969600e+00
-1.767000e-05,2.351200e+00,3.046267e+00
-1.757700e-05,2.435867e+00,3.112800e+00
-1.748400e-05,2.519600e+00,3.181333e+00
-1.739100e-05,2.611067e+00,3.251067e+00
-1.729800e-05,2.693333e+00,3.330133e+00
-1.720500e-05,2.773600e+00,3.399600e+00
-1.711200e-05,2.850667e+00,3.468000e+00
-1.701900e-05,2.938533e+00,3.555467e+00
-1.692600e-05,3.019067e+00,3.610000e+00
-1.683300e-05,3.091600e+00,3.685600e+00
-1.674000e-05,3.167733e+00,3.744400e+00
-1.664700e-05,3.265867e+00,3.814133e+00
-1.655400e-05,3.338533e+00,3.871600e+00
-1.646100e-05,3.412533e+00,3.944400e+00
-1.636800e-05,3.486000e+00,4.002267e+00
-1.627500e-05,3.562133e+00,4.051067e+00
-1.618200e-05,3.639200e+00,4.117333e+00
-1.608900e-05,3.716933e+00,4.180000e+00
-1.599600e-05,3.798400e+00,4.235867e+00
-1.590300e-05,3.850533e+00,4.288667e+00
-1.581000e-05,3.927200e+00,4.347067e+00
-1.571700e-05,4.008800e+00,4.391467e+00
-1.562400e-05,4.065333e+00,4.434667e+00
-1.553100e-05,4.133733e+00,4.478400e+00
-1.543800e-05,4.193067e+00,4.515067e+00
-1.534500e-05,4.246933e+00,4.557333e+00
-1.525200e-05,4.305600e+00,4.581467e+00
-1.515900e-05,4.363200e+00,4.634267e+00
-1.506600e-05,4.424400e+00,4.654667e+00
-1.497300e-05,4.468800e+00,4.682000e+00
-1.488000e-05,4.532533e+00,4.720800e+00
-1.478700e-05,4.569334e+00,4.742667e+00
-1.469400e-05,4.608133e+00,4.754400e+00
-1.460100e-05,4.652667e+00,4.781333e+00
-1.450800e-05,4.703600e+00,4.804667e+00
-1.441500e-05,4.735067e+00,4.816400e+00
-1.432200e-05,4.780667e+00,4.830133e+00
-1.422900e-05,4.810667e+00,4.840133e+00
-1.413600e-05,4.840933e+00,4.838800e+00
-1.404300e-05,4.866267e+00,4.854400e+00
-1.395000e-05,4.898533e+00,4.862534e+00
-1.385700e-05,4.910667e+00,4.865067e+00
-1.376400e-05,4.943334e+00,4.872933e+00
-1.367100e-05,4.959467e+00,4.855467e+00
-1.357800e-05,4.977067e+00,4.848667e+00
-1.348500e-05,4.989600e+00,4.841600e+00
-1.339200e-05,5.003200e+00,4.827200e+00
-1.329900e-05,5.006534e+00,4.813200e+00
-1.320600e-05,5.022133e+00,4.783600e+00
-1.311300e-05,5.028800e+00,4.765333e+00
-1.302000e-05,5.021200e+00,4.744534e+00
-1.292700e-05,5.017600e+00,4.723200e+00
-1.283400e-05,5.018400e+00,4.696000e+00
-1.274100e-05,4.991867e+00,4.673733e+00
-1.264800e-05,4.989867e+00,4.646267e+00
-1.255500e-05,4.971334e+00,4.607733e+00
-1.246200e-05,4.954000e+00,4.559867e+00
-1.236900e-05,4.941600e+00,4.529600e+00
-1.227600e-05,4.920000e+00,4.484400e+00
-1.218300e-05,4.893867e+00,4.445067e+00
-1.209000e-05,4.872933e+00,4.398533e+00
-1.199700e-05,4.838800e+00,4.354533e+00
-1.190400e-05,4.810000e+00,4.307467e+00
-1.181100e-05,4.772933e+00,4.255067e+00
-1.171800e-05,4.731467e+00,4.196533e+00
-1.162500e-05,4.696533e+00,4.151733e+00
-1.153200e-05,4.661733e+00,4.087867e+00
-1.143900e-05,4.600133e+00,4.027600e+00
-1.134600e-05,4.562000e+00,3.954800e+00
-1.125300e-05,4.522667e+00,3.900667e+00
-1.116000e-05,4.458133e+00,3.844400e+00
-1.106700e-05,4.408267e+00,3.784133e+00
-1.097400e-05,4.354267e+00,3.709467e+00
-1.088100e-05,4.303067e+00,3.643867e+00
-1.078800e-05,4.238133e+00,3.580267e+00
-1.069500e-05,4.172934e+00,3.514400e+00
-1.060200e-05,4.119467e+00,3.436267e+00
-1.050900e-05,4.053200e+00,3.369067e+00
-1.041600e-05,3.983333e+00,3.291733e+00
-1.032300e-05,3.909600e+00,3.206667e+00
-1.023000e-05,3.850400e+00,3.147733e+00
-1.013700e-05,3.775733e+00,3.081333e+00
-1.004400e-05,3.696000e+00,2.994000e+00
-9.951000e-06,3.632667e+00,2.921600e+00
-9.858000e-06,3.537200e+00,2.845067e+00
-9.765000e-06,3.470933e+00,2.753333e+00
-9.672000e-06,3.399200e+00,2.681867e+00
-9.579000e-06,3.320400e+00,2.600133e+00
-9.486000e-06,3.249467e+00,2.550533e+00
-9.393000e-06,3.163600e+00,2.457067e+00
-9.300000e-06,3.079333e+00,2.373067e+00
-9.207000e-06,3.006133e+00,2.300667e+00
-9.114000e-06,2.918667e+00,2.233467e+00
-9.021000e-06,2.846133e+00,2.152800e+00
-8.928000e-06,2.767467e+00,2.076000e+00
-8.835000e-06,2.682400e+00,2.001600e+00
-8.742000e-06,2.596133e+00,1.944133e+00
-8.649000e-06,2.507867e+00,1.851733e+00
-8.556000e-06,2.428933e+00,1.784533e+00
-8.463000e-06,2.349467e+00,1.704000e+00
-8.370000e-06,2.267200e+00,1.630800e+00
-8.277000e-06,2.189067e+00,1.556267e+00
-8.184000e-06,2.100133e+00,1.468267e+00
-8.091000e-06,2.029600e+00,1.429333e+00
-7.998000e-06,1.941867e+00,1.361600e+00
-7.905000e-06,1.878133e+00,1.288267e+00
-7.812000e-06,1.785467e+00,1.240000e+00
-7.719000e-06,1.711467e+00,1.159867e+00
-7.626000e-06,1.628933e+00,1.100933e+00
-7.533000e-06,1.559333e+00,1.045733e+00
-7.440000e-06,1.477067e+00,9.757333e-01
-7.347000e-06,1.398533e+00,9.244000e-01
-7.254000e-06,1.340400e+00,8.670667e-01
-7.161000e-06,1.251200e+00,8.054667e-01
-7.068000e-06,1.187333e+00,7.485334e-01
-6.975000e-06,1.124000e+00,7.198667e-01
-6.882000e-06,1.043333e+00,6.696000e-01
-6.789000e-06,9.742666e-01,6.205333e-01
-6.696000e-06,9.145333e-01,5.757334e-01
-6.603000e-06,8.566667e-01,5.336000e-01
-6.510000e-06,7.906667e-01,4.904000e-01
-6.417000e-06,7.384000e-01,4.406667e-01
-6.324000e-06,6.730667e-01,4.074667e-01
-6.231000e-06,6.236000e-01,3.837333e-01
-6.138000e-06,5.753334e-01,3.604000e-01
-6.045000e-06,5.168000e-01,3.250667e-01
-5.952000e-06,4.746667e-01,2.918667e-01
-5.859000e-06,4.320000e-01,2.785333e-01
-5.766000e-06,3.868000e-01,2.565333e-01
-5.673000e-06,3.418667e-01,2.505333e-01
-5.580000e-06,3.008000e-01,2.248000e-01
-5.487000e-06,2.676000e-01,1.972000e-01
-5.394000e-06,2.312000e-01,2.005333e-01
-5.301000e-06,1.808000e-01,1.896000e-01
-5.208000e-06,1.757333e-01,1.797333e-01
-5.115000e-06,1.520000e-01,1.841333e-01
-5.022000e-06,1.201333e-01,1.921333e-01
-4.929000e-06,1.048000e-01,1.908000e-01
-4.836000e-06,8.200000e-02,1.924000e-01
-4.743000e-06,5.826667e-02,2.004000e-01
-4.650000e-06,5.053334e-02,2.092000e-01
-4.557000e-06,4.280000e-02,2.194667e-01
-4.464000e-06,3.893333e-02,2.317333e-01
-4.371000e-06,2.400000e-02,2.513333e-01
-4.278000e-06,2.440000e-02,2.686667e-01
-4.185000e-06,2.080000e-02,3.049333e-01
-4.092000e-06,2.386667e-02,3.196000e-01
-3.999000e-06,4.346667e-02,3.581333e-01
-3.906000e-06,5.440000e-02,3.918667e-01
-3.813000e-06,5.360000e-02,4.002667e-01
-3.720000e-06,7.266667e-02,4.468000e-01
-3.627000e-06,8.240000e-02,4.836000e-01
-3.534000e-06,1.070667e-01,5.156000e-01
-3.441000e-06,1.322667e-01,5.656000e-01
-3.348000e-06,1.565333e-01,6.040000e-01
-3.255000e-06,1.793333e-01,6.480000e-01
-3.162000e-06,2.077333e-01,7.074667e-01
-3.069000e-06,2.622667e-01,7.556000e-01
-2.976000e-06,2.780000e-01,7.965333e-01
-2.883000e-06,3.192000e-01,8.389333e-01
-2.790000e-06,3.572000e-01,9.110667e-01
-2.697000e-06,3.870667e-01,9.593334e-01
-2.604000e-06,4.345333e-01,1.021467e+00
-2.511000e-06,4.865333e-01,1.086267e+00
-2.418000e-06,5.302667e-01,1.130400e+00
-2.325000e-06,5.750667e-01,1.208800e+00
-2.232000e-06,6.398667e-01,1.268933e+00
-2.139000e-06,6.870667e-01,1.337067e+00
-2.046000e-06,7.454666e-01,1.394667e+00
-1.953000e-06,8.140000e-01,1.464000e+00
-1.860000e-06,8.778667e-01,1.545200e+00
-1.767000e-06,9.405333e-01,1.615733e+00
-1.674000e-06,9.953334e-01,1.685733e+00
-1.581000e-06,1.067200e+00,1.737867e+00
-1.488000e-06,1.132667e+00,1.824400e+00
-1.395000e-06,1.202533e+00,1.898267e+00
-1.302000e-06,1.269467e+00,1.966133e+00
-1.209000e-06,1.333067e+00,2.045467e+00
-1.116000e-06,1.414267e+00,2.121067e+00
-1.023000e-06,1.493200e+00,2.204667e+00
-9.300000e-07,1.580667e+00,2.283200e+00
-8.370000e-07,1.645600e+00,2.353733e+00
-7.440000e-07,1.723733e+00,2.436133e+00
-6.510000e-07,1.808533e+00,2.511733e+00
-5.580000e-07,1.891067e+00,2.587867e+00
-4.650000e-07,1.969467e+00,2.661467e+00
-3.720000e-07,2.046133e+00,2.738533e+00
-2.790000e-07,2.127600e+00,2.819733e+00
-1.860000e-07,2.209867e+00,2.900000e+00
