Time(s),CH1V,CH2V
-1.000000e-03,9.345334e-01,1.072533e+00
-9.980000e-04,9.549333e-01,1.074800e+00
-9.960000e-04,9.844000e-01,1.063467e+00
-9.940000e-04,1.011600e+00,1.068000e+00
-9.920000e-04,1.034267e+00,1.054400e+00
-9.900000e-04,1.054800e+00,1.061200e+00
-9.880000e-04,1.077467e+00,1.065733e+00
-9.860000e-04,1.104667e+00,1.056667e+00
-9.840000e-04,1.136400e+00,1.052133e+00
-9.820000e-04,1.163600e+00,1.054400e+00
-9.800000e-04,1.197733e+00,1.070267e+00
-9.780000e-04,1.220400e+00,1.061200e+00
-9.760000e-04,1.243067e+00,1.070267e+00
-9.740000e-04,1.265733e+00,1.074800e+00
-9.720000e-04,1.292933e+00,1.072533e+00
-9.700000e-04,1.320133e+00,1.068000e+00
-9.680000e-04,1.338400e+00,1.081600e+00
-9.660000e-04,1.372400e+00,1.095200e+00
-9.640000e-04,1.413200e+00,1.083867e+00
-9.620000e-04,1.433600e+00,1.088400e+00
-9.600000e-04,1.458533e+00,1.092933e+00
-9.580000e-04,1.490400e+00,1.088400e+00
-9.560000e-04,1.519867e+00,1.104267e+00
-9.540000e-04,1.531200e+00,1.099733e+00
-9.520000e-04,1.569733e+00,1.117867e+00
-9.500000e-04,1.612800e+00,1.129200e+00
-9.480000e-04,1.621867e+00,1.106533e+00
-9.460000e-04,1.660533e+00,1.124667e+00
-9.440000e-04,1.694533e+00,1.131467e+00
-9.420000e-04,1.717200e+00,1.131467e+00
-9.400000e-04,1.746667e+00,1.142800e+00
-9.380000e-04,1.780800e+00,1.133733e+00
-9.360000e-04,1.808000e+00,1.156400e+00
-9.340000e-04,1.839733e+00,1.147333e+00
-9.320000e-04,1.864667e+00,1.165467e+00
-9.300000e-04,1.894133e+00,1.179067e+00
-9.280000e-04,1.928267e+00,1.174533e+00
-9.260000e-04,1.939600e+00,1.192667e+00
-9.240000e-04,1.982667e+00,1.197067e+00
-9.220000e-04,2.014400e+00,1.197067e+00
-9.200000e-04,2.046133e+00,1.215200e+00
-9.180000e-04,2.075733e+00,1.212933e+00
-9.160000e-04,2.125600e+00,1.231067e+00
-9.140000e-04,2.148267e+00,1.237867e+00
-9.120000e-04,2.182267e+00,1.242400e+00
-9.100000e-04,2.211867e+00,1.253733e+00
-9.080000e-04,2.236800e+00,1.265067e+00
-9.060000e-04,2.250400e+00,1.274133e+00
-9.040000e-04,2.302533e+00,1.283200e+00
-9.020000e-04,2.325200e+00,1.280933e+00
-9.000000e-04,2.347867e+00,1.294533e+00
-8.980000e-04,2.395600e+00,1.299067e+00
-8.960000e-04,2.422800e+00,1.317200e+00
-8.940000e-04,2.454533e+00,1.321733e+00
-8.920000e-04,2.486267e+00,1.337600e+00
-8.900000e-04,2.520400e+00,1.346533e+00
-8.880000e-04,2.558933e+00,1.360133e+00
-8.860000e-04,2.574800e+00,1.369200e+00
-8.840000e-04,2.597467e+00,1.387333e+00
-8.820000e-04,2.642800e+00,1.396400e+00
-8.800000e-04,2.665600e+00,1.400933e+00
-8.780000e-04,2.692800e+00,1.421333e+00
-8.760000e-04,2.735867e+00,1.432667e+00
-8.740000e-04,2.769867e+00,1.437200e+00
-8.720000e-04,2.801733e+00,1.446267e+00
-8.700000e-04,2.831200e+00,1.462133e+00
-8.680000e-04,2.858400e+00,1.478000e+00
-8.660000e-04,2.867467e+00,1.480267e+00
-8.640000e-04,2.910533e+00,1.509600e+00
-8.620000e-04,2.940133e+00,1.516400e+00
-8.600000e-04,2.967333e+00,1.534533e+00
-8.580000e-04,3.010400e+00,1.527733e+00
-8.560000e-04,3.024000e+00,1.548133e+00
-8.540000e-04,3.053467e+00,1.570800e+00
-8.520000e-04,3.092133e+00,1.579867e+00
-8.500000e-04,3.119333e+00,1.584400e+00
-8.480000e-04,3.157867e+00,1.611600e+00
-8.460000e-04,3.189600e+00,1.613867e+00
-8.440000e-04,3.212267e+00,1.629600e+00
-8.420000e-04,3.239600e+00,1.647733e+00
-8.400000e-04,3.275867e+00,1.672667e+00
-8.380000e-04,3.305333e+00,1.665867e+00
-8.360000e-04,3.328000e+00,1.684000e+00
-8.340000e-04,3.368800e+00,1.715733e+00
-8.320000e-04,3.398400e+00,1.724800e+00
-8.300000e-04,3.418800e+00,1.747467e+00
-8.280000e-04,3.455067e+00,1.745200e+00
-8.260000e-04,3.477733e+00,1.774533e+00
-8.240000e-04,3.523200e+00,1.785867e+00
-8.220000e-04,3.534533e+00,1.799467e+00
-8.200000e-04,3.566267e+00,1.828933e+00
-8.180000e-04,3.602533e+00,1.824400e+00
-8.160000e-04,3.629733e+00,1.842533e+00
-8.140000e-04,3.647867e+00,1.872000e+00
-8.120000e-04,3.684267e+00,1.885600e+00
-8.100000e-04,3.700133e+00,1.901467e+00
-8.080000e-04,3.731867e+00,1.908267e+00
-8.060000e-04,3.747733e+00,1.926267e+00
-8.040000e-04,3.781733e+00,1.935333e+00
-8.020000e-04,3.815867e+00,1.969333e+00
-8.000000e-04,3.838533e+00,1.971600e+00
-7.980000e-04,3.861200e+00,1.994267e+00
-7.960000e-04,3.883867e+00,2.014667e+00
-7.940000e-04,3.902000e+00,2.032800e+00
-7.920000e-04,3.938267e+00,2.046400e+00
-7.900000e-04,3.963333e+00,2.057733e+00
-7.880000e-04,3.983733e+00,2.078000e+00
-7.860000e-04,4.008667e+00,2.091600e+00
-7.840000e-04,4.026800e+00,2.107467e+00
-7.820000e-04,4.049467e+00,2.121067e+00
-7.800000e-04,4.088000e+00,2.143733e+00
-7.780000e-04,4.113067e+00,2.161867e+00
-7.760000e-04,4.131200e+00,2.175467e+00
-7.740000e-04,4.158400e+00,2.193600e+00
-7.720000e-04,4.183333e+00,2.213867e+00
-7.700000e-04,4.190134e+00,2.225200e+00
-7.680000e-04,4.215067e+00,2.259200e+00
-7.660000e-04,4.237733e+00,2.263733e+00
-7.640000e-04,4.271867e+00,2.284133e+00
-7.620000e-04,4.285467e+00,2.300000e+00
-7.600000e-04,4.308134e+00,2.313600e+00
-7.580000e-04,4.326267e+00,2.347600e+00
-7.560000e-04,4.348933e+00,2.352133e+00
-7.540000e-04,4.367067e+00,2.374667e+00
-7.520000e-04,4.389867e+00,2.390533e+00
-7.500000e-04,4.401200e+00,2.404133e+00
-7.480000e-04,4.419333e+00,2.440400e+00
-7.460000e-04,4.430667e+00,2.449467e+00
-7.440000e-04,4.469200e+00,2.465333e+00
-7.420000e-04,4.478267e+00,2.488000e+00
-7.400000e-04,4.500933e+00,2.499200e+00
-7.380000e-04,4.519067e+00,2.517333e+00
-7.360000e-04,4.553200e+00,2.526400e+00
-7.340000e-04,4.562267e+00,2.555867e+00
-7.320000e-04,4.575867e+00,2.562667e+00
-7.300000e-04,4.598533e+00,2.587600e+00
-7.280000e-04,4.616667e+00,2.603467e+00
-7.260000e-04,4.605333e+00,2.610267e+00
-7.240000e-04,4.632534e+00,2.646400e+00
-7.220000e-04,4.646133e+00,2.648667e+00
-7.200000e-04,4.666533e+00,2.669067e+00
-7.180000e-04,4.684800e+00,2.691733e+00
-7.160000e-04,4.684800e+00,2.718933e+00
-7.140000e-04,4.702933e+00,2.730267e+00
-7.120000e-04,4.734667e+00,2.737067e+00
-7.100000e-04,4.739200e+00,2.759733e+00
-7.080000e-04,4.748267e+00,2.782400e+00
-7.060000e-04,4.752800e+00,2.795867e+00
-7.040000e-04,4.752800e+00,2.820800e+00
-7.020000e-04,4.789067e+00,2.841200e+00
-7.000000e-04,4.793600e+00,2.866133e+00
-6.980000e-04,4.807200e+00,2.882000e+00
-6.960000e-04,4.816267e+00,2.891067e+00
-6.940000e-04,4.830000e+00,2.906933e+00
-6.920000e-04,4.843600e+00,2.927333e+00
-6.900000e-04,4.841333e+00,2.927333e+00
-6.880000e-04,4.870800e+00,2.956667e+00
-6.860000e-04,4.870800e+00,2.968000e+00
-6.840000e-04,4.877600e+00,2.990667e+00
-6.820000e-04,4.884400e+00,3.002000e+00
-6.800000e-04,4.898000e+00,3.020133e+00
-6.780000e-04,4.895733e+00,3.031467e+00
-6.760000e-04,4.911600e+00,3.063200e+00
-6.740000e-04,4.909333e+00,3.072267e+00
-6.720000e-04,4.920667e+00,3.081200e+00
-6.700000e-04,4.932000e+00,3.108400e+00
-6.680000e-04,4.936533e+00,3.119733e+00
-6.660000e-04,4.927467e+00,3.135600e+00
-6.640000e-04,4.945600e+00,3.167333e+00
-6.620000e-04,4.929733e+00,3.169600e+00
-6.600000e-04,4.952400e+00,3.190000e+00
-6.580000e-04,4.941067e+00,3.187733e+00
-6.560000e-04,4.938800e+00,3.214933e+00
-6.540000e-04,4.938800e+00,3.235200e+00
-6.520000e-04,4.952400e+00,3.244267e+00
-6.500000e-04,4.952400e+00,3.253333e+00
-6.480000e-04,4.945600e+00,3.278267e+00
-6.460000e-04,4.956933e+00,3.282800e+00
-6.440000e-04,4.968400e+00,3.321333e+00
-6.420000e-04,4.952400e+00,3.314533e+00
-6.400000e-04,4.952400e+00,3.341733e+00
-6.380000e-04,4.956933e+00,3.353067e+00
-6.360000e-04,4.956933e+00,3.359867e+00
-6.340000e-04,4.956933e+00,3.380133e+00
-6.320000e-04,4.961467e+00,3.405067e+00
-6.300000e-04,4.954667e+00,3.409600e+00
-6.280000e-04,4.954667e+00,3.420933e+00
-6.260000e-04,4.945600e+00,3.436800e+00
-6.240000e-04,4.950133e+00,3.448133e+00
-6.220000e-04,4.938800e+00,3.461733e+00
-6.200000e-04,4.945600e+00,3.484400e+00
-6.180000e-04,4.943334e+00,3.488933e+00
-6.160000e-04,4.927467e+00,3.502533e+00
-6.140000e-04,4.932000e+00,3.511600e+00
-6.120000e-04,4.900267e+00,3.534133e+00
-6.100000e-04,4.909333e+00,3.538667e+00
-6.080000e-04,4.918400e+00,3.554533e+00
-6.060000e-04,4.907067e+00,3.581733e+00
-6.040000e-04,4.895733e+00,3.588533e+00
-6.020000e-04,4.895733e+00,3.599867e+00
-6.000000e-04,4.882133e+00,3.608933e+00
-5.980000e-04,4.866267e+00,3.602133e+00
-5.960000e-04,4.845867e+00,3.613467e+00
-5.940000e-04,4.854933e+00,3.627067e+00
-5.920000e-04,4.854933e+00,3.640667e+00
-5.900000e-04,4.832267e+00,3.647467e+00
-5.880000e-04,4.816267e+00,3.660933e+00
-5.860000e-04,4.814000e+00,3.656533e+00
-5.840000e-04,4.800400e+00,3.683600e+00
-5.820000e-04,4.798133e+00,3.701733e+00
-5.800000e-04,4.782267e+00,3.701733e+00
-5.780000e-04,4.768667e+00,3.710800e+00
-5.760000e-04,4.764133e+00,3.715333e+00
-5.740000e-04,4.739200e+00,3.719867e+00
-5.720000e-04,4.730134e+00,3.749333e+00
-5.700000e-04,4.705200e+00,3.751600e+00
-5.680000e-04,4.707467e+00,3.751600e+00
-5.660000e-04,4.691600e+00,3.747067e+00
-5.640000e-04,4.673333e+00,3.774267e+00
-5.620000e-04,4.659733e+00,3.778800e+00
-5.600000e-04,4.646133e+00,3.787867e+00
-5.580000e-04,4.648400e+00,3.792400e+00
-5.560000e-04,4.632534e+00,3.812667e+00
-5.540000e-04,4.598533e+00,3.805867e+00
-5.520000e-04,4.594000e+00,3.821733e+00
-5.500000e-04,4.564533e+00,3.819467e+00
-5.480000e-04,4.546400e+00,3.835333e+00
-5.460000e-04,4.525867e+00,3.839867e+00
-5.440000e-04,4.519067e+00,3.846667e+00
-5.420000e-04,4.487333e+00,3.842133e+00
-5.400000e-04,4.487333e+00,3.851200e+00
-5.380000e-04,4.457867e+00,3.862533e+00
-5.360000e-04,4.444267e+00,3.860267e+00
-5.340000e-04,4.417067e+00,3.858000e+00
-5.320000e-04,4.408000e+00,3.873867e+00
-5.300000e-04,4.398933e+00,3.858000e+00
-5.280000e-04,4.364800e+00,3.887467e+00
-5.260000e-04,4.335333e+00,3.885200e+00
-5.240000e-04,4.328533e+00,3.889733e+00
-5.220000e-04,4.303600e+00,3.880667e+00
-5.200000e-04,4.280933e+00,3.892000e+00
-5.180000e-04,4.262800e+00,3.885200e+00
-5.160000e-04,4.237733e+00,3.901067e+00
-5.140000e-04,4.208267e+00,3.903333e+00
-5.120000e-04,4.190134e+00,3.903333e+00
-5.100000e-04,4.158400e+00,3.887467e+00
-5.080000e-04,4.142533e+00,3.907867e+00
-5.060000e-04,4.115334e+00,3.910133e+00
-5.040000e-04,4.104000e+00,3.907867e+00
-5.020000e-04,4.074400e+00,3.903333e+00
-5.000000e-04,4.049467e+00,3.910133e+00
-4.980000e-04,4.022267e+00,3.907867e+00
-4.960000e-04,4.004133e+00,3.912400e+00
-4.940000e-04,3.965600e+00,3.910133e+00
-4.920000e-04,3.947333e+00,3.919200e+00
-4.900000e-04,3.917867e+00,3.907867e+00
-4.880000e-04,3.899733e+00,3.901067e+00
-4.860000e-04,3.858933e+00,3.912400e+00
-4.840000e-04,3.843067e+00,3.912400e+00
-4.820000e-04,3.815867e+00,3.892000e+00
-4.800000e-04,3.799867e+00,3.901067e+00
-4.780000e-04,3.772667e+00,3.901067e+00
-4.760000e-04,3.736400e+00,3.887467e+00
-4.740000e-04,3.709200e+00,3.889733e+00
-4.720000e-04,3.686533e+00,3.898800e+00
-4.700000e-04,3.652400e+00,3.869333e+00
-4.680000e-04,3.629733e+00,3.880667e+00
-4.660000e-04,3.600267e+00,3.876133e+00
-4.640000e-04,3.575333e+00,3.871600e+00
-4.620000e-04,3.554933e+00,3.880667e+00
-4.600000e-04,3.532267e+00,3.867067e+00
-4.580000e-04,3.495867e+00,3.869333e+00
-4.560000e-04,3.475467e+00,3.862533e+00
-4.540000e-04,3.416533e+00,3.855733e+00
-4.520000e-04,3.418800e+00,3.871600e+00
-4.500000e-04,3.398400e+00,3.819467e+00
-4.480000e-04,3.364267e+00,3.839867e+00
-4.460000e-04,3.328000e+00,3.828533e+00
-4.440000e-04,3.289467e+00,3.828533e+00
-4.420000e-04,3.266800e+00,3.812667e+00
-4.400000e-04,3.248667e+00,3.801467e+00
-4.380000e-04,3.203200e+00,3.799200e+00
-4.360000e-04,3.187333e+00,3.796933e+00
-4.340000e-04,3.153333e+00,3.785600e+00
-4.320000e-04,3.110267e+00,3.790133e+00
-4.300000e-04,3.087600e+00,3.765200e+00
-4.280000e-04,3.058000e+00,3.772000e+00
-4.260000e-04,3.019467e+00,3.765200e+00
-4.240000e-04,2.990000e+00,3.744800e+00
-4.220000e-04,2.965067e+00,3.738000e+00
-4.200000e-04,2.930933e+00,3.719867e+00
-4.180000e-04,2.899200e+00,3.713067e+00
-4.160000e-04,2.858400e+00,3.704000e+00
-4.140000e-04,2.835733e+00,3.692667e+00
-4.120000e-04,2.790400e+00,3.708533e+00
-4.100000e-04,2.767600e+00,3.665467e+00
-4.080000e-04,2.749467e+00,3.670000e+00
-4.060000e-04,2.715467e+00,3.656533e+00
-4.040000e-04,2.676933e+00,3.663200e+00
-4.020000e-04,2.654267e+00,3.645200e+00
-4.000000e-04,2.622400e+00,3.627067e+00
-3.980000e-04,2.595200e+00,3.606667e+00
-3.960000e-04,2.561200e+00,3.606667e+00
-3.940000e-04,2.524933e+00,3.574933e+00
-3.920000e-04,2.506800e+00,3.597600e+00
-3.900000e-04,2.477200e+00,3.561333e+00
-3.880000e-04,2.440933e+00,3.574933e+00
-3.860000e-04,2.409200e+00,3.540933e+00
-3.840000e-04,2.386533e+00,3.529600e+00
-3.820000e-04,2.352400e+00,3.531867e+00
-3.800000e-04,2.329733e+00,3.500267e+00
-3.780000e-04,2.302533e+00,3.507067e+00
-3.760000e-04,2.264000e+00,3.488933e+00
-3.740000e-04,2.230000e+00,3.475333e+00
-3.720000e-04,2.191333e+00,3.461733e+00
-3.700000e-04,2.159600e+00,3.445867e+00
-3.680000e-04,2.130133e+00,3.425467e+00
-3.660000e-04,2.098400e+00,3.409600e+00
-3.640000e-04,2.071200e+00,3.411867e+00
-3.620000e-04,2.032533e+00,3.400533e+00
-3.600000e-04,2.009867e+00,3.375600e+00
-3.580000e-04,1.969067e+00,3.362133e+00
-3.560000e-04,1.950933e+00,3.341733e+00
-3.540000e-04,1.912267e+00,3.339467e+00
-3.520000e-04,1.900933e+00,3.323600e+00
-3.500000e-04,1.846533e+00,3.303200e+00
-3.480000e-04,1.835200e+00,3.300933e+00
-3.460000e-04,1.783067e+00,3.271467e+00
-3.440000e-04,1.774000e+00,3.246533e+00
-3.420000e-04,1.730800e+00,3.242000e+00
-3.400000e-04,1.712667e+00,3.232933e+00
-3.380000e-04,1.674133e+00,3.205867e+00
-3.360000e-04,1.658267e+00,3.192267e+00
-3.340000e-04,1.624133e+00,3.169600e+00
-3.320000e-04,1.590133e+00,3.176400e+00
-3.300000e-04,1.572000e+00,3.146933e+00
-3.280000e-04,1.535733e+00,3.131067e+00
-3.260000e-04,1.501733e+00,3.115200e+00
-3.240000e-04,1.485867e+00,3.088000e+00
-3.220000e-04,1.438133e+00,3.081200e+00
-3.200000e-04,1.413200e+00,3.058667e+00
-3.180000e-04,1.397333e+00,3.058667e+00
-3.160000e-04,1.361067e+00,3.042800e+00
-3.140000e-04,1.336000e+00,3.017867e+00
-3.120000e-04,1.317867e+00,3.008800e+00
-3.100000e-04,1.281600e+00,2.986133e+00
-3.080000e-04,1.258933e+00,2.997467e+00
-3.060000e-04,1.218133e+00,2.968000e+00
-3.040000e-04,1.209067e+00,2.938533e+00
-3.020000e-04,1.165867e+00,2.934000e+00
-3.000000e-04,1.150000e+00,2.900133e+00
-2.980000e-04,1.109200e+00,2.891067e+00
-2.960000e-04,1.097867e+00,2.875200e+00
-2.940000e-04,1.066133e+00,2.857067e+00
-2.920000e-04,1.057067e+00,2.836667e+00
-2.900000e-04,1.013867e+00,2.818533e+00
-2.880000e-04,9.980000e-01,2.795867e+00
-2.860000e-04,9.798667e-01,2.782400e+00
-2.840000e-04,9.640000e-01,2.759733e+00
-2.820000e-04,9.232000e-01,2.752933e+00
-2.800000e-04,8.958667e-01,2.746133e+00
-2.780000e-04,8.754667e-01,2.707600e+00
-2.760000e-04,8.596000e-01,2.705333e+00
-2.740000e-04,8.301333e-01,2.694000e+00
-2.720000e-04,8.052000e-01,2.662267e+00
-2.700000e-04,7.938667e-01,2.644133e+00
-2.680000e-04,7.712000e-01,2.639733e+00
-2.660000e-04,7.461333e-01,2.617067e+00
-2.640000e-04,7.212000e-01,2.594400e+00
-2.620000e-04,6.962667e-01,2.571733e+00
-2.600000e-04,6.690667e-01,2.549067e+00
-2.580000e-04,6.486667e-01,2.528667e+00
-2.560000e-04,6.237333e-01,2.510533e+00
-2.540000e-04,6.146667e-01,2.499200e+00
-2.520000e-04,5.941333e-01,2.485733e+00
-2.500000e-04,5.737333e-01,2.465333e+00
-2.480000e-04,5.465333e-01,2.431333e+00
-2.460000e-04,5.352000e-01,2.431333e+00
-2.440000e-04,5.216000e-01,2.417733e+00
-2.420000e-04,4.989333e-01,2.392800e+00
-2.400000e-04,4.762667e-01,2.379200e+00
-2.380000e-04,4.694667e-01,2.365600e+00
-2.360000e-04,4.444000e-01,2.367867e+00
-2.340000e-04,4.308000e-01,2.334000e+00
-2.320000e-04,4.104000e-01,2.313600e+00
-2.300000e-04,3.900000e-01,2.295467e+00
-2.280000e-04,3.900000e-01,2.290933e+00
-2.260000e-04,3.650667e-01,2.266000e+00
-2.240000e-04,3.469333e-01,2.250133e+00
-2.220000e-04,3.356000e-01,2.213867e+00
-2.200000e-04,3.128000e-01,2.209333e+00
-2.180000e-04,3.037333e-01,2.193600e+00
-2.160000e-04,2.878667e-01,2.175467e+00
-2.140000e-04,2.720000e-01,2.152800e+00
-2.120000e-04,2.584000e-01,2.150533e+00
-2.100000e-04,2.493333e-01,2.121067e+00
-2.080000e-04,2.266667e-01,2.107467e+00
-2.060000e-04,2.266667e-01,2.091600e+00
-2.040000e-04,2.040000e-01,2.080267e+00
-2.020000e-04,1.926667e-01,2.039600e+00
-2.000000e-04,1.790667e-01,2.039600e+00
-1.980000e-04,1.676000e-01,2.026000e+00
-1.960000e-04,1.517333e-01,2.003333e+00
-1.940000e-04,1.494667e-01,1.978400e+00
-1.920000e-04,1.426667e-01,1.964800e+00
-1.900000e-04,1.336000e-01,1.962533e+00
-1.880000e-04,1.222667e-01,1.942133e+00
-1.860000e-04,1.109333e-01,1.917333e+00
-1.840000e-04,1.018667e-01,1.915067e+00
-1.820000e-04,1.018667e-01,1.896933e+00
-1.800000e-04,9.053333e-02,1.874267e+00
-1.780000e-04,8.373334e-02,1.849333e+00
-1.760000e-04,7.920000e-02,1.851600e+00
-1.740000e-04,7.466666e-02,1.838000e+00
-1.720000e-04,7.240000e-02,1.799467e+00
-1.700000e-04,5.426667e-02,1.808533e+00
-1.680000e-04,4.066667e-02,1.794933e+00
-1.660000e-04,5.653333e-02,1.783600e+00
-1.640000e-04,4.973333e-02,1.752000e+00
-1.620000e-04,4.520000e-02,1.745200e+00
-1.600000e-04,2.240000e-02,1.722533e+00
-1.580000e-04,2.693333e-02,1.711200e+00
-1.560000e-04,2.693333e-02,1.699867e+00
-1.540000e-04,2.466667e-02,1.695333e+00
-1.520000e-04,1.560000e-02,1.674933e+00
-1.500000e-04,2.920000e-02,1.661333e+00
-1.480000e-04,1.786667e-02,1.634133e+00
-1.460000e-04,1.106667e-02,1.627467e+00
-1.440000e-04,1.560000e-02,1.625200e+00
-1.420000e-04,2.240000e-02,1.602533e+00
-1.400000e-04,2.013333e-02,1.593467e+00
-1.380000e-04,6.533334e-03,1.568533e+00
-1.360000e-04,6.533334e-03,1.559467e+00
-1.340000e-04,2.693333e-02,1.559467e+00
-1.320000e-04,1.786667e-02,1.523200e+00
-1.300000e-04,2.240000e-02,1.527733e+00
-1.280000e-04,3.613333e-02,1.514133e+00
-1.260000e-04,2.693333e-02,1.482533e+00
-1.240000e-04,3.613333e-02,1.493733e+00
-1.220000e-04,5.426667e-02,1.466667e+00
-1.200000e-04,4.520000e-02,1.480267e+00
-1.180000e-04,4.973333e-02,1.439467e+00
-1.160000e-04,5.426667e-02,1.430400e+00
-1.140000e-04,5.200000e-02,1.430400e+00
-1.120000e-04,6.333333e-02,1.419067e+00
-1.100000e-04,7.013334e-02,1.407733e+00
-1.080000e-04,7.240000e-02,1.389600e+00
-1.060000e-04,8.146667e-02,1.371467e+00
-1.040000e-04,8.600000e-02,1.371467e+00
-1.020000e-04,1.109333e-01,1.362400e+00
-1.000000e-04,9.960000e-02,1.351067e+00
-9.800000e-05,1.154667e-01,1.342000e+00
-9.600000e-05,1.086667e-01,1.337600e+00
-9.400000e-05,1.154667e-01,1.324000e+00
-9.200000e-05,1.336000e-01,1.310400e+00
-9.000000e-05,1.585333e-01,1.301333e+00
-8.800000e-05,1.653333e-01,1.296800e+00
-8.600000e-05,1.653333e-01,1.290000e+00
-8.400000e-05,1.744000e-01,1.278667e+00
-8.200000e-05,1.972000e-01,1.260533e+00
-8.000000e-05,1.994667e-01,1.265067e+00
-7.800000e-05,2.198667e-01,1.253733e+00
-7.600000e-05,2.198667e-01,1.240133e+00
-7.400000e-05,2.470667e-01,1.235600e+00
-7.200000e-05,2.561333e-01,1.224267e+00
-7.000000e-05,2.765333e-01,1.210667e+00
-6.800000e-05,2.901333e-01,1.206133e+00
-6.600000e-05,2.992000e-01,1.215200e+00
-6.400000e-05,3.037333e-01,1.185867e+00
-6.200000e-05,3.310667e-01,1.188133e+00
-6.000000e-05,3.469333e-01,1.167733e+00
-5.800000e-05,3.582667e-01,1.170000e+00
-5.600000e-05,3.718667e-01,1.183600e+00
-5.400000e-05,3.922667e-01,1.149600e+00
-5.200000e-05,3.968000e-01,1.142800e+00
-5.000000e-05,4.308000e-01,1.151867e+00
-4.800000e-05,4.285333e-01,1.147333e+00
-4.600000e-05,4.580000e-01,1.136000e+00
-4.400000e-05,4.672000e-01,1.129200e+00
-4.200000e-05,4.830667e-01,1.124667e+00
-4.000000e-05,5.057333e-01,1.124667e+00
-3.800000e-05,5.216000e-01,1.136000e+00
-3.600000e-05,5.397334e-01,1.104267e+00
-3.400000e-05,5.646667e-01,1.111067e+00
-3.200000e-05,5.850667e-01,1.092933e+00
-3.000000e-05,6.100000e-01,1.090667e+00
-2.800000e-05,6.237333e-01,1.090667e+00
-2.600000e-05,6.441333e-01,1.088400e+00
-2.400000e-05,6.622667e-01,1.090667e+00
-2.200000e-05,6.985334e-01,1.088400e+00
-2.000000e-05,7.121333e-01,1.083867e+00
-1.800000e-05,7.234667e-01,1.079333e+00
-1.600000e-05,7.416000e-01,1.077067e+00
-1.400000e-05,7.780000e-01,1.077067e+00
-1.200000e-05,7.848000e-01,1.065733e+00
-1.000000e-05,8.210667e-01,1.086133e+00
-8.000000e-06,8.324000e-01,1.065733e+00
-6.000000e-06,8.618667e-01,1.065733e+00
-4.000000e-06,8.890667e-01,1.074800e+00
